! Start: 46°
! Ende: 49°
! Schritt: 0,02°
! Messzeit: 2s
#2Theta  I (pcs)
46.0000   0
46.0200   15
46.0400   15
46.0600   14
46.0800   11
46.1000   13
46.1200   12
46.1400   12
46.1600   14
46.1800   17
46.2000   11
46.2200   15
46.2400   9
46.2600   16
46.2800   21
46.3000   17
46.3200   22
46.3400   20
46.3600   19
46.3800   19
46.4000   22
46.4200   18
46.4400   14
46.4600   20
46.4800   28
46.5000   22
46.5200   21
46.5400   21
46.5600   29
46.5800   22
46.6000   21
46.6200   22
46.6400   29
46.6600   31
46.6800   19
46.7000   22
46.7200   29
46.7400   37
46.7600   24
46.7800   21
46.8000   26
46.8200   34
46.8400   41
46.8600   36
46.8800   36
46.9000   29
46.9200   33
46.9400   33
46.9600   36
46.9800   32
47.0000   25
47.0200   38
47.0400   46
47.0600   55
47.0800   71
47.1000   55
47.1200   50
47.1400   55
47.1600   78
47.1800   79
47.2000   84
47.2200   91
47.2400   110
47.2600   133
47.2800   143
47.3000   187
47.3200   225
47.3400   301
47.3600   403
47.3800   587
47.4000   738
47.4200   965
47.4400   1251
47.4600   1474
47.4800   1613
47.5000   1910
47.5200   1941
47.5400   1701
47.5600   1460
47.5800   1078
47.6000   898
47.6200   954
47.6400   824
47.6600   776
47.6800   613
47.7000   360
47.7200   259
47.7400   166
47.7600   141
47.7800   98
47.8000   87
47.8200   89
47.8400   69
47.8600   66
47.8800   61
47.9000   46
47.9200   52
47.9400   44
47.9600   31
47.9800   40
48.0000   28
48.0200   25
48.0400   25
48.0600   40
48.0800   22
48.1000   31
48.1200   32
48.1400   28
48.1600   32
48.1800   23
48.2000   29
48.2200   13
48.2400   18
48.2600   20
48.2800   23
48.3000   23
48.3200   17
48.3400   14
48.3600   15
48.3800   16
48.4000   13
48.4200   19
48.4400   18
48.4600   20
48.4800   18
48.5000   20
48.5200   22
48.5400   19
48.5600   18
48.5800   15
48.6000   19
48.6200   20
48.6400   13
48.6600   13
48.6800   11
48.7000   16
48.7200   12
48.7400   12
48.7600   16
48.7800   17
48.8000   18
48.8200   13
48.8400   11
48.8600   9
48.8800   13
48.9000   14
48.9200   11
48.9400   16
48.9600   10
48.9800   14
