! Start: 46°
! Ende: 49°
! Schritt: 0,02°
! Messzeit: 2s
#2Theta  I (pcs)
46.0000   0
46.0200   31
46.0400   33
46.0600   23
46.0800   24
46.1000   21
46.1200   21
46.1400   31
46.1600   26
46.1800   19
46.2000   25
46.2200   24
46.2400   33
46.2600   23
46.2800   28
46.3000   31
46.3200   20
46.3400   27
46.3600   25
46.3800   34
46.4000   28
46.4200   35
46.4400   36
46.4600   28
46.4800   23
46.5000   31
46.5200   24
46.5400   24
46.5600   24
46.5800   29
46.6000   25
46.6200   28
46.6400   35
46.6600   27
46.6800   23
46.7000   34
46.7200   30
46.7400   34
46.7600   41
46.7800   48
46.8000   33
46.8200   39
46.8400   45
46.8600   35
46.8800   42
46.9000   35
46.9200   40
46.9400   38
46.9600   34
46.9800   40
47.0000   42
47.0200   40
47.0400   54
47.0600   50
47.0800   45
47.1000   41
47.1200   57
47.1400   60
47.1600   59
47.1800   56
47.2000   64
47.2200   47
47.2400   64
47.2600   79
47.2800   66
47.3000   93
47.3200   83
47.3400   72
47.3600   92
47.3800   83
47.4000   105
47.4200   90
47.4400   108
47.4600   103
47.4800   126
47.5000   135
47.5200   140
47.5400   139
47.5600   145
47.5800   121
47.6000   141
47.6200   154
47.6400   108
47.6600   135
47.6800   141
47.7000   118
47.7200   150
47.7400   128
47.7600   107
47.7800   91
47.8000   102
47.8200   95
47.8400   92
47.8600   83
47.8800   90
47.9000   83
47.9200   77
47.9400   68
47.9600   62
47.9800   78
48.0000   59
48.0200   75
48.0400   72
48.0600   62
48.0800   63
48.1000   56
48.1200   60
48.1400   51
48.1600   44
48.1800   59
48.2000   39
48.2200   48
48.2400   41
48.2600   54
48.2800   50
48.3000   38
48.3200   47
48.3400   45
48.3600   43
48.3800   44
48.4000   52
48.4200   45
48.4400   52
48.4600   53
48.4800   39
48.5000   34
48.5200   47
48.5400   49
48.5600   46
48.5800   43
48.6000   30
48.6200   44
48.6400   36
48.6600   39
48.6800   32
48.7000   49
48.7200   41
48.7400   45
48.7600   31
48.7800   43
48.8000   38
48.8200   38
48.8400   45
48.8600   39
48.8800   45
48.9000   30
48.9200   42
48.9400   39
48.9600   36
48.9800   37
