! Start: 55°
! Ende: 58°
! Schritt: 0,02°
! Messzeit: 2s
#2Theta  I (pcs)
55.0000   0
55.0200   0
55.0400   17
55.0600   21
55.0800   10
55.1000   18
55.1200   22
55.1400   22
55.1600   13
55.1800   19
55.2000   19
55.2200   14
55.2400   15
55.2600   19
55.2800   19
55.3000   23
55.3200   25
55.3400   23
55.3600   23
55.3800   27
55.4000   19
55.4200   13
55.4400   21
55.4600   12
55.4800   28
55.5000   24
55.5200   15
55.5400   17
55.5600   15
55.5800   20
55.6000   23
55.6200   32
55.6400   22
55.6600   24
55.6800   21
55.7000   24
55.7200   28
55.7400   29
55.7600   22
55.7800   30
55.8000   45
55.8200   36
55.8400   40
55.8600   39
55.8800   40
55.9000   40
55.9200   29
55.9400   35
55.9600   35
55.9800   50
56.0000   44
56.0200   37
56.0400   52
56.0600   30
56.0800   39
56.1000   39
56.1200   43
56.1400   37
56.1600   42
56.1800   52
56.2000   51
56.2200   49
56.2400   56
56.2600   64
56.2800   56
56.3000   52
56.3200   75
56.3400   70
56.3600   72
56.3800   64
56.4000   72
56.4200   77
56.4400   59
56.4600   62
56.4800   72
56.5000   69
56.5200   80
56.5400   63
56.5600   42
56.5800   46
56.6000   63
56.6200   44
56.6400   50
56.6600   51
56.6800   56
56.7000   44
56.7200   35
56.7400   43
56.7600   29
56.7800   33
56.8000   33
56.8200   28
56.8400   42
56.8600   31
56.8800   25
56.9000   24
56.9200   35
56.9400   31
56.9600   30
56.9800   27
57.0000   28
57.0200   29
57.0400   25
57.0600   24
57.0800   19
57.1000   27
57.1200   29
57.1400   32
57.1600   25
57.1800   22
57.2000   26
57.2200   21
57.2400   19
57.2600   18
57.2800   18
57.3000   19
57.3200   17
57.3400   12
57.3600   16
57.3800   16
57.4000   24
57.4200   19
57.4400   21
57.4600   24
57.4800   28
57.5000   21
57.5200   19
57.5400   16
57.5600   14
57.5800   18
57.6000   16
57.6200   13
57.6400   16
57.6600   18
57.6800   22
57.7000   20
57.7200   16
57.7400   11
57.7800   13
57.8000   13
57.8200   13
57.8400   7
57.8600   11
57.8800   15
57.9000   17
57.9200   16
57.9400   13
57.9600   8
57.9800   10
