I [a.u.]
15.705
15.440
17.000
17.960
17.935
18.850
19.705
20.330
20.650
22.480
23.520
24.100
25.545
27.020
28.330
29.560
30.365
32.090
33.150
35.000
35.850
37.010
38.765
39.235
41.295
42.520
44.550
45.935
46.890
48.315
50.075
51.240
52.185
54.270
55.000
56.940
58.445
59.420
60.905
62.345
63.615
64.410
65.275
66.485
67.855
68.125
70.080
70.190
71.020
72.315
72.795
74.035
74.670
75.215
75.785
76.170
76.335
76.815
77.330
78.035
78.150
78.020
78.795
79.350
79.790
80.330
80.665
80.670
81.000
81.430
82.225
82.120
82.875
83.480
84.000
84.000
84.000
85.460
86.080
86.725
87.150
87.455
88.560
89.445
90.795
91.240
91.695
92.795
93.600
94.445
95.355
96.785
97.730
98.475
99.600
100.180
101.890
103.150
105.640
106.455
108.480
109.810
111.100
113.150
114.930
116.000
117.445
119.000
121.615
123.075
124.260
126.785
128.715
129.865
131.205
130.170
131.625
132.630
134.815
136.035
137.680
139.475
140.755
143.170
145.515
147.090
147.915
149.140
150.240
151.150
151.485
152.395
153.690
155.380
155.340
155.480
156.060
155.965
156.170
155.590
155.965
155.960
155.205
155.570
154.875
154.000
153.035
150.810
150.910
149.385
148.860
147.895
147.150
146.530
145.285
144.690
144.350
143.485
142.045
141.330
140.355
139.720
138.440
137.060
136.340
134.905
134.875
134.185
132.960
132.150
131.850
131.150
131.150
130.455
129.680
129.480
129.145
128.580
128.445
127.495
127.350
126.185
126.330
126.500
127.380
127.425
127.995
127.650
128.030
128.485
129.050
129.000
129.545
129.965
130.025
130.980
131.625
131.670
132.480
133.160
134.570
135.130
135.680
136.940
137.935
138.395
140.000
140.355
141.675
142.330
143.705
144.785
145.100
146.055
147.295
147.875
148.450
149.790
150.570
151.420
152.125
153.150
153.725
154.690
155.150
155.340
156.115
156.670
157.150
157.230
157.615
157.435
157.590
157.065
157.430
157.205
157.050
156.100
156.645
155.270
155.350
154.670
153.140
152.380
152.020
150.815
150.345
148.000
147.355
147.185
145.465
144.765
143.625
142.525
141.355
140.050
138.685
137.455
135.440
134.980
132.980
132.000
130.270
129.150
128.580
126.840
126.300
124.765
123.515
122.900
122.170
119.635
118.910
117.900
116.570
115.690
115.000
113.585
113.000
112.150
110.775
110.245
109.250
108.895
108.100
107.615
106.595
106.295
105.260
105.330
104.735
103.545
103.480
103.150
103.000
102.665
102.850
102.760
102.090
102.025
102.000
102.000
101.315
100.800
101.050
102.185
101.100
101.485
101.555
102.125
102.545
102.515
102.125
102.650
102.810
103.000
103.000
103.100
103.375
103.795
104.515
104.580
104.435
105.015
105.490
105.900
106.185
106.705
106.625
107.000
107.270
107.855
108.260
108.685
108.600
108.690
109.170
109.435
109.980
110.170
110.565
110.570
110.295
110.450
110.295
110.730
110.110
110.100
110.150
110.715
109.875
110.000
109.875
109.240
108.975
109.055
108.685
108.580
107.485
107.695
107.150
105.295
104.070
103.670
103.330
103.000
102.285
101.300
100.000
100.000
100.000
99.480
98.445
97.965
97.150
96.855
95.885
95.020
93.690
93.145
92.570
92.005
90.525
89.565
88.260
87.570
87.000
86.250
85.280
83.875
83.260
82.815
81.980
81.000
80.375
79.305
78.695
77.425
77.000
76.125
75.335
75.055
74.100
73.900
72.900
71.670
71.215
71.000
70.790
70.250
69.000
69.760
68.000
68.000
67.875
67.395
67.270
67.000
66.420
66.270
65.570
65.335
65.000
65.000
65.000
64.795
64.810
64.090
64.125
63.455
63.445
63.615
63.020
63.240
62.910
62.775
62.775
62.100
62.645
62.760
62.705
62.330
61.875
61.730
61.485
61.815
61.875
61.775
61.775
61.815
61.875
61.335
61.810
61.570
62.005
61.830
61.875
62.025
62.165
62.150
62.130
61.895
62.170
62.645
63.125
62.750
63.000
63.475
63.550
63.100
64.110
64.330
64.270
64.460
64.425
64.545
65.000
64.980
65.000
64.900
65.020
65.000
65.000
64.900
65.000
64.335
64.795
64.575
64.650
63.600
63.810
63.090
63.235
63.350
63.460
63.345
62.875
64.020
63.265
62.965
62.420
62.020
62.640
62.330
61.350
61.225
61.060
60.355
60.365
60.000
59.455
59.060
58.740
58.445
57.955
57.525
56.800
56.455
55.740
55.290
54.965
54.675
54.120
54.000
53.700
52.750
51.930
51.605
51.310
50.980
50.755
50.350
49.325
49.000
48.875
46.690
45.605
45.145
44.475
43.545
43.340
42.785
43.190
44.475
44.505
43.370
43.500
43.285
42.830
42.605
41.970
41.000
40.230
39.775
39.395
39.360
39.090
39.000
38.980
38.875
38.495
38.340
38.330
37.800
37.700
36.790
36.435
36.355
36.000
36.000
36.000
35.900
35.665
35.270
35.000
35.410
35.190
34.750
35.000
34.360
34.330
34.460
34.435
33.965
33.725
33.190
33.655
33.640
33.385
33.170
33.125
33.090
33.000
32.875
33.000
33.000
33.000
32.875
33.000
33.000
32.770
32.875
32.900
32.900
32.765
32.910
32.660
32.725
32.495
33.000
32.770
33.000
33.000
32.605
32.875
32.795
32.670
32.980
32.325
32.625
32.555
32.900
33.000
32.715
32.650
32.855
32.900
33.000
32.625
32.750
32.875
33.000
32.950
32.850
32.875
33.000
32.270
32.670
32.850
32.455
32.545
32.150
32.125
32.565
32.750
32.415
32.775
32.565
33.000
32.750
32.850
33.000
32.875
32.910
32.570
32.815
32.475
32.120
32.755
32.695
32.145
32.250
32.105
31.625
31.735
31.900
31.465
31.500
31.335
31.060
31.000
31.090
30.900
30.795
30.755
30.580
30.185
30.220
30.025
30.125
29.435
29.290
29.485
29.415
29.340
28.875
28.875
28.590
28.400
28.310
28.020
28.000
27.585
28.000
27.545
27.305
27.000
26.900
26.875
26.295
26.145
26.000
25.645
25.350
25.200
25.125
24.590
24.660
24.100
24.000
24.000
23.525
23.000
23.125
23.230
23.000
22.755
22.725
21.805
21.645
21.135
21.285
20.955
20.180
20.230
20.150
20.000
20.000
20.000
19.685
19.670
19.545
19.465
19.375
19.000
18.750
18.880
18.275
18.670
18.980
17.920
17.625
17.445
17.445
17.515
17.230
17.000
17.100
17.000
16.770
17.000
16.665
16.850
16.645
16.495
16.475
16.365
16.000
16.000
15.975
16.000
15.495
15.975
15.545
15.440
15.100
15.580
15.100
14.690
14.900
14.785
14.850
14.590
14.360
14.360
14.200
14.200
14.505
14.090
13.915
14.200
13.875
13.570
14.000
14.100
13.500
13.510
13.500
13.460
13.980
13.125
13.000
13.565
13.430
13.200
13.325
13.210
13.120
13.190
13.120
12.910
12.865
13.110
12.910
13.060
12.935
12.545
13.090
13.000
12.930
12.545
12.375
12.725
12.965
13.000
12.625
12.715
13.000
12.565
12.550
12.545
12.560
12.455
12.900
12.395
12.510
12.755
12.145
12.400
12.855
12.585
12.440
12.705
12.245
12.475
12.770
12.370
12.190
12.560
12.220
12.535
12.435
12.100
11.875
12.260
12.395
12.285
12.230
12.120
12.395
12.170
12.190
12.000
12.305
12.000
12.000
12.000
12.185
12.000
11.900
12.000
12.090
12.000
11.725
12.000
12.090
11.900
11.705
12.000
11.670
12.210
12.000
11.520
11.980
11.795
11.575
12.000
11.880
11.565
11.340
11.435
11.245
11.340
11.980
11.250
11.000
11.185
11.000
11.240
11.645
11.035
11.000
11.000
11.185
11.090
10.770
11.020
10.660
10.725
10.625
10.420
10.360
10.585
10.370
10.570
10.275
10.090
10.090
10.125
9.810
10.215
10.000
9.550
10.000
9.790
9.660
9.755
9.270
9.425
9.295
9.060
9.000
9.090
8.815
8.965
8.910
8.850
8.840
8.480
8.895
8.430
8.225
8.335
8.010
7.875
7.990
7.690
7.575
8.000
8.135
7.695
7.340
7.275
7.000
7.120
7.330
7.090
7.000
7.000
7.000
7.000
7.000
7.090
6.900
6.980
7.000
6.870
7.000
6.980
6.775
6.535
6.625
6.785
6.810
6.715
6.260
6.285
6.125
6.100
6.330
6.475
6.150
5.900
6.000
5.810
5.875
6.000
6.000
5.600
5.800
5.475
5.850
5.175
5.200
5.550
5.270
5.560
4.860
4.890
4.110
4.985
4.650
4.560
4.810
4.000
4.020
4.230
4.000
4.000
4.180
4.000
4.285
4.200
4.125
4.000
4.000
4.000
4.100
4.125
4.000
4.000
4.000
4.200
4.000
4.150
4.000
4.000
4.000
4.000
4.000
4.000
4.000
4.000
4.000
