I [a.u.]
4.000
4.000
4.000
4.980
4.670
5.010
5.210
5.545
6.360
7.000
6.895
6.850
7.095
7.200
7.845
8.810
8.530
9.060
9.810
9.705
10.705
11.115
11.295
11.550
12.115
12.255
12.810
13.490
14.145
14.240
14.505
15.010
15.750
16.425
16.695
16.885
17.000
17.785
18.055
18.490
18.615
19.000
19.525
19.780
19.895
19.765
20.000
20.690
20.460
20.400
20.815
21.660
22.360
22.965
21.990
22.860
22.480
23.000
22.885
23.000
23.115
23.105
23.245
23.615
23.310
23.000
23.630
24.200
23.830
23.895
23.685
24.000
24.255
25.040
24.875
25.000
25.000
25.115
25.800
25.925
25.515
26.130
26.595
26.870
26.605
26.820
27.375
27.765
27.870
28.000
28.000
28.565
28.870
29.255
29.690
30.115
30.405
30.965
31.115
31.360
32.030
32.035
32.885
33.000
33.775
33.950
35.000
35.235
35.585
36.000
36.000
36.800
37.875
38.055
38.485
38.295
38.705
39.000
39.180
39.505
40.255
40.600
41.015
41.740
43.000
43.270
43.585
43.765
44.000
44.270
44.460
44.895
45.385
45.115
45.530
45.555
45.330
45.445
45.765
45.525
46.000
45.790
45.340
45.160
45.395
45.085
45.065
44.150
44.000
44.435
43.905
43.705
43.130
43.035
42.800
42.870
42.390
42.140
41.800
41.510
41.240
40.905
40.575
40.160
39.860
39.765
39.375
39.330
39.000
39.000
38.380
38.800
38.480
38.460
38.095
37.905
37.905
37.235
37.175
36.950
36.745
36.390
36.770
36.390
36.620
36.835
37.530
36.805
37.180
37.115
37.430
38.000
37.875
38.115
38.435
38.365
38.895
39.045
38.820
39.000
39.285
39.475
39.800
40.000
40.470
41.015
40.915
41.000
41.460
41.945
42.415
42.585
42.895
43.150
43.425
43.275
43.705
44.000
44.390
44.875
45.060
44.895
45.075
45.565
45.885
46.055
45.820
46.180
46.555
46.235
46.220
46.695
46.400
46.555
46.375
46.480
46.540
46.095
46.615
46.000
45.820
46.000
46.000
45.200
45.185
44.715
44.290
44.275
44.000
43.585
43.000
42.905
42.865
42.765
42.145
41.690
41.290
40.785
40.480
40.305
39.700
39.105
39.000
38.765
38.505
38.245
37.070
37.725
36.190
36.000
36.000
35.860
35.885
35.385
35.000
35.000
34.505
34.145
34.065
33.470
33.035
33.000
33.000
33.000
32.585
32.340
32.530
32.180
31.935
31.690
31.315
31.550
31.350
31.350
31.065
30.905
30.470
31.095
30.985
31.000
30.905
30.470
30.800
30.860
30.880
30.965
30.680
31.000
30.725
30.620
30.860
30.650
31.145
31.115
31.235
31.000
31.000
31.270
31.545
31.690
31.765
31.820
32.010
31.940
32.180
32.575
32.765
32.235
32.585
33.000
32.630
32.895
33.000
33.000
32.870
33.035
33.235
33.000
33.180
33.340
33.435
33.565
33.385
33.775
33.105
33.035
33.375
33.635
33.785
33.860
33.245
33.450
33.340
33.435
33.115
33.115
33.235
33.000
33.000
33.000
33.000
32.670
32.270
31.820
31.485
31.330
31.200
31.320
31.140
30.680
31.000
30.870
30.435
30.105
30.035
29.780
29.210
29.000
28.835
28.725
28.165
27.965
27.650
27.560
27.140
27.105
26.860
26.670
26.140
25.765
25.235
25.625
25.235
24.625
24.480
24.530
23.705
23.490
23.115
23.000
23.000
23.055
22.725
22.280
22.060
22.290
21.960
21.165
21.305
20.580
20.760
20.545
20.445
20.000
20.250
20.000
20.000
20.000
20.000
20.000
19.940
20.000
20.000
19.850
19.785
19.725
19.555
19.565
19.555
19.365
19.490
19.435
19.140
19.605
19.140
19.510
19.330
19.150
18.820
19.150
19.330
19.330
19.000
18.905
19.235
19.000
19.000
19.000
19.000
19.085
19.235
19.235
19.000
19.000
19.095
19.180
19.215
18.820
19.000
19.000
19.180
19.200
18.855
19.275
19.275
19.285
19.310
19.430
19.790
19.755
19.130
19.415
19.650
19.820
20.000
20.000
19.765
19.860
20.000
20.000
20.000
20.000
20.000
20.000
20.000
20.000
19.765
20.000
20.000
19.905
19.810
20.000
20.000
19.905
19.905
19.905
19.545
19.860
19.490
19.200
19.790
19.460
19.310
19.445
18.860
19.105
18.905
19.000
19.180
19.235
18.150
18.450
18.095
18.290
18.035
17.730
17.295
17.330
17.485
17.525
17.000
17.000
17.000
17.000
17.000
16.860
16.930
16.695
16.270
16.410
16.000
15.625
15.965
15.575
14.860
14.870
13.925
14.115
14.285
13.520
13.550
13.975
13.380
13.755
14.000
13.765
13.670
13.730
13.115
13.000
13.000
12.905
13.035
12.965
12.425
11.970
12.105
12.180
12.415
12.140
12.140
11.930
12.040
12.000
11.820
11.720
11.510
11.485
11.695
11.480
11.330
11.295
11.295
10.955
11.000
11.140
11.350
11.040
11.000
11.000
11.180
10.820
11.000
11.085
11.040
10.870
10.625
10.725
10.680
10.850
10.565
10.670
10.625
10.680
10.550
10.460
10.905
10.520
10.530
10.095
10.585
10.340
10.680
10.520
10.775
10.115
10.130
10.180
10.210
10.785
10.415
10.235
10.210
10.375
10.435
10.000
10.095
10.415
10.530
10.415
10.340
10.350
10.810
10.130
10.745
10.765
10.530
10.315
10.615
10.445
10.680
10.610
10.375
10.350
10.715
10.625
10.330
10.490
10.625
10.330
10.270
10.355
10.505
10.495
10.530
10.765
10.635
10.670
10.295
10.330
10.490
10.490
10.445
10.435
10.445
10.275
10.765
10.555
9.905
10.280
10.235
10.510
10.460
10.270
10.140
10.375
10.375
9.720
10.000
10.410
10.235
10.270
10.210
9.775
10.130
10.000
9.625
10.415
9.855
9.760
9.295
9.860
9.685
9.665
9.540
9.180
9.390
9.470
9.310
8.730
8.965
9.000
9.240
8.745
8.550
9.120
8.670
9.120
8.590
8.490
8.030
8.200
8.555
7.830
8.295
8.175
7.610
7.940
7.495
7.625
7.180
7.695
7.350
7.000
7.180
7.000
7.215
7.215
7.000
6.820
7.000
7.180
6.905
7.000
7.000
6.765
6.860
6.895
6.585
6.255
6.425
6.455
6.285
6.435
6.235
6.105
6.350
6.105
6.000
5.650
5.730
6.200
5.895
5.785
6.000
5.885
5.215
5.675
4.750
5.880
5.085
5.195
4.905
4.555
4.595
5.295
5.320
4.800
4.300
4.705
4.165
4.180
4.625
4.740
4.095
4.330
4.000
4.000
4.000
4.095
4.035
4.340
4.035
4.000
4.095
4.000
4.000
4.000
4.105
4.035
4.000
4.000
4.000
4.000
4.000
4.000
4.000
4.000
4.000
4.140
4.000
4.000
4.000
4.000
4.000
4.000
4.000
4.000
4.000
4.000
4.000
4.000
4.000
4.000
4.000
4.000
4.000
4.000
4.000
4.000
4.000
4.000
4.140
4.000
4.000
4.000
3.905
4.000
4.000
4.000
4.000
4.000
4.000
4.000
4.000
4.000
3.905
4.000
4.000
4.000
3.885
4.000
4.000
4.000
4.000
4.000
4.000
4.000
4.000
4.000
4.000
4.000
4.000
4.000
4.000
4.000
3.965
4.000
4.000
4.000
4.000
3.860
4.000
4.000
4.000
4.000
4.000
3.885
4.000
4.000
4.000
4.000
3.860
4.000
4.000
4.000
4.000
4.000
4.000
3.860
4.000
4.000
4.000
4.000
3.860
4.000
4.000
4.000
4.000
4.000
3.765
3.860
4.000
3.820
3.765
4.000
3.765
3.860
3.755
3.905
3.625
3.860
3.680
4.000
4.000
3.235
3.765
4.000
3.905
4.000
3.905
3.670
3.495
3.905
3.690
3.690
3.540
3.520
3.555
3.610
3.470
3.410
3.095
3.625
3.650
3.445
3.095
3.480
3.235
3.000
3.450
3.140
3.365
3.235
3.235
3.105
3.180
3.235
3.000
3.235
3.000
3.180
3.180
3.140
3.000
3.000
3.025
3.000
3.180
3.000
3.000
3.000
3.000
2.935
3.000
2.820
2.585
2.670
2.415
2.765
2.745
2.850
2.725
2.625
2.510
2.585
2.375
2.850
2.635
2.905
2.470
2.645
2.200
2.540
2.690
2.515
1.820
2.285
2.180
2.275
2.010
2.425
2.180
2.160
2.055
1.915
2.555
2.085
2.235
1.915
2.035
2.190
2.235
1.905
2.010
2.095
2.330
2.210
1.940
2.000
1.915
2.000
2.275
2.155
1.745
2.010
1.960
2.170
1.990
2.030
1.640
1.525
1.765
2.190
1.895
1.850
1.670
1.825
1.725
1.765
1.570
1.445
1.370
1.235
1.315
1.840
1.470
1.095
1.375
1.460
1.480
1.660
1.245
1.235
