I [a.u.]
22.485
23.440
24.900
26.430
26.420
28.395
29.400
31.805
32.745
34.150
35.000
36.915
38.215
41.000
42.980
45.000
46.200
48.000
50.180
51.540
54.035
56.235
58.195
60.870
63.390
65.020
66.850
69.000
71.150
73.615
75.665
77.400
79.700
81.910
83.610
86.020
88.365
90.075
91.800
93.765
95.780
96.950
98.755
100.395
102.035
103.910
105.685
106.205
107.945
109.040
110.280
111.430
112.095
112.855
114.060
113.930
114.385
115.000
115.150
115.470
115.585
116.625
117.475
118.000
118.580
118.225
119.625
119.550
120.415
120.810
122.150
122.280
122.850
123.130
124.110
125.000
125.020
125.910
127.095
127.760
128.000
128.965
130.150
131.000
131.650
133.170
134.000
135.420
137.005
137.930
139.225
141.345
142.850
144.430
145.965
147.000
149.020
150.870
153.420
155.140
157.580
159.635
161.870
163.300
166.235
169.280
171.245
173.330
176.000
178.215
180.270
182.675
185.905
188.020
188.965
189.115
191.040
192.515
194.665
195.880
198.020
200.760
201.610
205.875
209.590
211.000
212.230
213.915
214.885
216.505
217.820
218.870
219.440
220.000
220.780
221.095
221.220
221.170
221.025
221.420
220.240
219.890
219.505
218.720
218.000
216.645
214.655
212.075
211.090
210.665
208.870
207.050
205.335
204.405
203.135
201.570
201.410
198.130
197.680
195.085
194.870
192.825
191.530
190.185
188.090
186.980
186.185
184.925
183.935
181.515
180.780
179.935
179.560
178.775
178.430
176.875
176.540
175.965
175.905
174.155
173.170
172.180
172.055
173.065
173.525
173.395
173.520
173.680
174.105
174.980
175.925
176.000
176.020
176.600
177.685
178.000
178.540
179.000
180.000
181.260
181.740
183.255
184.115
185.775
186.850
187.945
188.935
190.885
192.000
192.835
194.345
195.000
196.415
197.045
198.330
199.785
201.050
202.130
203.200
204.355
205.610
205.900
207.165
208.430
208.020
209.650
209.605
210.160
210.440
210.495
210.485
210.290
210.440
210.520
210.150
210.095
210.150
208.865
208.000
208.000
207.710
206.000
204.890
203.850
202.140
201.340
198.785
197.895
195.975
194.910
193.760
191.560
189.720
188.625
186.780
185.265
182.780
181.100
179.000
177.245
176.000
174.000
172.465
170.150
168.450
166.330
164.850
163.430
161.780
160.150
159.460
157.765
155.485
154.370
152.780
150.660
149.870
147.540
146.775
145.850
144.000
143.850
142.850
141.910
140.000
139.190
138.815
137.690
137.235
136.330
135.755
134.440
134.105
134.000
133.635
133.020
133.020
132.645
132.485
131.750
131.095
131.945
131.000
131.000
131.000
131.000
131.000
131.000
131.085
131.095
131.125
132.520
132.275
131.780
132.790
132.980
133.450
133.675
133.740
134.525
134.280
135.060
134.910
135.615
136.100
136.110
136.290
137.000
137.715
138.085
138.765
139.100
139.085
139.365
139.330
139.570
140.335
141.090
141.235
141.330
141.785
142.150
142.090
142.645
141.480
141.760
141.480
141.240
141.765
141.055
140.440
140.655
140.255
140.145
139.545
138.565
139.020
138.235
137.355
136.875
135.715
134.000
132.555
132.050
131.000
130.170
129.895
128.670
127.850
127.870
127.740
126.430
125.000
124.370
123.150
122.580
120.440
119.520
118.760
117.525
115.170
114.485
113.625
112.690
111.200
110.700
108.935
107.910
107.515
105.965
104.870
103.240
102.000
101.265
100.270
99.000
97.910
96.550
96.000
95.570
94.330
93.185
92.605
91.755
91.090
90.095
89.635
88.465
87.485
87.335
86.930
85.905
85.290
85.335
84.310
83.170
83.000
83.000
82.290
81.850
81.720
81.450
81.085
80.535
80.185
79.905
79.850
79.710
79.580
78.815
78.665
78.420
78.800
78.520
77.720
77.795
77.355
77.905
77.610
77.255
76.930
76.765
77.095
76.870
76.355
76.255
76.235
76.730
76.635
76.280
76.205
76.235
76.580
76.300
75.990
76.355
76.580
76.345
76.685
76.430
76.980
77.430
77.065
77.000
77.310
77.130
77.765
78.655
78.090
78.645
78.355
79.000
79.435
79.330
79.760
79.905
79.850
80.000
80.000
80.000
80.000
80.000
80.000
80.000
80.000
80.000
79.235
79.325
79.480
78.085
78.115
78.525
77.915
77.980
77.760
77.130
76.945
78.025
77.325
77.215
77.000
76.850
76.635
76.095
75.660
75.305
75.000
74.635
74.000
73.095
73.085
72.540
71.300
71.380
70.905
70.085
69.645
69.085
68.330
68.475
67.130
66.625
66.240
65.830
65.275
64.260
63.910
63.830
63.155
62.430
61.670
60.660
60.025
59.740
59.020
57.765
55.555
54.095
53.625
53.000
51.930
51.270
52.220
53.515
53.815
53.155
52.405
51.860
51.000
50.850
50.240
49.375
48.865
48.315
48.000
47.670
47.175
46.730
46.645
47.000
46.340
46.110
45.835
45.340
45.240
44.595
44.180
43.895
43.460
43.710
43.095
43.135
42.845
42.440
42.090
42.135
41.850
41.110
41.465
41.110
41.070
40.720
40.495
40.220
40.090
40.000
39.660
39.355
39.405
39.245
38.910
39.095
38.605
38.465
38.640
38.470
38.275
38.090
38.090
38.135
38.230
38.095
38.175
38.000
37.905
38.225
37.705
37.865
37.780
37.865
37.685
37.890
37.690
37.645
37.745
37.815
37.905
37.445
37.185
37.310
37.480
37.675
37.520
37.185
37.205
37.595
37.745
37.495
37.345
37.380
37.300
37.500
37.110
37.530
37.110
37.300
37.115
36.795
37.110
36.490
35.885
36.635
36.245
36.395
36.405
36.600
36.160
36.870
36.255
36.780
36.375
36.915
35.905
36.475
35.960
35.520
35.375
35.490
35.095
35.000
35.170
35.000
35.000
35.000
35.000
35.000
34.755
34.555
34.385
34.665
34.205
34.000
34.000
33.850
33.890
33.760
33.445
33.265
32.735
32.415
32.180
32.150
32.000
32.000
32.000
31.905
31.610
31.245
31.000
30.940
30.380
30.180
30.000
29.740
29.285
29.575
29.000
28.610
28.430
27.650
27.795
27.290
27.205
27.250
26.705
26.675
26.175
25.880
25.670
25.675
25.105
24.915
24.390
24.175
24.010
23.980
23.140
22.905
22.775
22.450
22.230
22.000
22.020
21.870
21.780
21.430
21.005
20.375
20.110
19.685
19.445
19.205
19.230
19.135
19.000
19.000
19.000
18.775
18.715
18.405
18.020
18.115
17.910
17.725
17.455
17.440
16.845
16.725
16.435
16.400
16.455
16.000
16.000
16.135
16.135
16.115
15.565
15.625
16.000
15.535
15.105
15.090
15.070
14.910
14.560
14.640
14.405
14.430
14.300
14.340
14.090
13.735
14.000
13.885
13.755
13.440
13.280
12.795
13.155
13.205
13.000
12.630
12.905
12.910
12.645
12.720
12.570
12.405
12.335
12.355
12.000
12.255
12.475
12.000
12.030
11.740
11.795
12.000
11.735
12.035
11.620
11.375
11.850
11.830
11.580
11.205
11.150
11.425
11.425
11.145
11.020
11.060
11.205
11.220
10.795
10.780
11.000
11.185
11.130
10.940
10.665
10.905
10.905
11.075
10.710
10.330
10.850
10.690
10.530
10.740
10.705
10.630
10.360
10.220
10.265
10.605
10.265
10.150
10.410
10.000
10.280
10.130
10.110
10.180
10.295
10.000
10.000
9.925
10.000
9.795
9.870
9.780
9.795
9.645
9.700
9.590
9.580
9.675
9.295
9.000
9.520
9.000
9.450
9.605
9.355
9.150
9.220
8.795
8.795
9.000
9.075
8.905
8.775
8.795
8.780
8.660
8.470
8.815
8.690
8.670
8.480
8.020
8.130
8.275
8.045
8.220
8.220
8.130
7.630
7.810
8.000
7.715
7.965
7.375
7.275
7.550
7.585
7.115
6.890
7.150
7.090
6.735
6.910
6.735
6.600
6.685
6.610
6.180
6.425
6.020
6.375
6.240
6.090
6.000
6.205
6.000
6.085
6.000
5.665
6.205
6.000
5.705
5.530
6.000
5.735
5.915
5.355
5.580
5.650
5.380
5.030
5.150
5.020
5.045
5.220
5.205
4.730
4.830
4.485
4.050
4.495
4.340
4.045
4.445
3.780
3.735
3.990
3.620
3.425
3.300
3.000
3.000
3.135
3.205
3.150
3.150
3.000
3.000
3.000
3.000
3.000
3.000
2.850
3.000
3.150
2.910
2.645
3.000
2.735
3.000
2.980
2.850
2.870
3.000
2.795
3.000
2.740
2.775
3.000
2.695
2.885
2.865
2.490
2.440
2.530
2.905
2.370
2.795
2.560
2.235
2.085
2.375
2.090
2.355
2.225
2.225
2.175
2.355
2.390
2.205
1.795
2.180
2.335
2.355
1.885
2.240
1.705
2.090
2.295
2.000
1.705
1.550
1.490
1.995
2.090
1.815
1.605
1.820
1.550
2.000
1.730
1.485
1.315
1.655
