I [a.u.]
15.620
16.100
16.430
16.665
18.045
18.795
19.665
19.795
20.770
22.325
23.325
24.375
25.890
26.795
27.765
29.515
30.375
31.815
32.795
34.670
35.535
36.045
38.225
39.795
41.375
42.430
43.910
45.420
46.665
48.470
49.665
50.990
51.665
53.755
54.910
56.770
58.090
59.575
60.470
61.755
63.380
64.575
65.280
66.220
67.330
67.845
69.665
70.415
71.240
72.010
72.945
73.945
74.385
75.050
75.470
75.565
76.525
76.270
76.955
77.470
77.370
77.565
77.895
78.270
78.905
79.495
79.765
79.980
80.180
80.565
80.665
81.100
82.010
81.950
82.665
82.795
83.370
83.665
83.845
84.575
85.755
86.155
86.665
86.955
87.885
88.705
89.860
90.515
91.285
92.110
92.605
93.565
95.515
95.800
97.230
97.550
98.855
99.855
102.090
103.140
104.470
105.960
107.095
109.000
110.450
112.135
113.185
115.095
115.945
118.225
119.640
121.760
123.150
124.805
125.435
124.960
126.185
127.915
128.945
130.560
131.665
133.175
133.855
136.190
139.090
140.660
141.710
142.050
143.280
144.315
144.850
145.805
146.435
146.795
147.375
147.470
147.665
147.665
147.565
147.665
147.575
147.325
147.470
147.130
146.610
145.260
144.320
143.235
142.805
141.845
141.060
140.050
139.240
138.860
137.795
136.420
136.380
134.950
134.465
132.970
131.665
130.750
130.340
129.235
128.665
128.045
127.350
126.665
125.700
124.700
124.435
123.615
123.475
122.665
122.330
121.705
121.125
120.665
120.755
120.025
118.665
118.575
118.805
118.665
119.135
118.805
119.275
119.520
119.510
120.335
120.935
121.090
121.435
121.885
122.245
122.705
123.290
123.765
124.515
125.050
125.705
126.630
127.300
128.370
128.760
129.805
130.575
131.125
131.765
133.385
134.035
134.945
135.470
136.805
137.755
138.665
139.325
140.000
140.805
141.755
142.425
143.100
143.230
144.325
144.665
144.665
145.270
145.810
146.335
146.475
146.665
146.705
146.560
146.990
146.695
146.430
145.790
145.615
145.320
144.955
144.570
144.535
143.850
142.645
141.520
141.320
140.095
139.140
138.475
137.035
135.745
134.720
133.995
132.865
131.665
130.795
129.240
128.285
127.325
126.235
124.875
123.665
122.210
120.810
119.460
118.665
117.265
116.105
115.050
114.165
113.125
112.575
111.245
110.050
109.045
108.330
107.515
106.480
105.900
104.545
103.520
102.665
102.665
101.545
100.145
99.665
99.145
99.245
98.515
97.990
97.515
97.420
96.665
96.765
96.665
96.045
95.915
95.890
95.860
95.495
95.325
95.230
94.990
94.760
94.765
94.805
94.760
94.865
94.865
95.240
95.125
95.610
95.655
95.990
95.995
96.345
96.375
96.560
96.665
96.895
96.980
97.195
97.455
97.130
98.090
98.860
98.515
98.760
99.385
99.665
99.665
99.665
100.145
100.820
101.185
101.375
100.420
101.860
102.220
102.665
102.570
102.435
102.765
102.665
102.665
102.470
102.665
102.230
102.425
102.100
102.125
101.990
101.860
101.385
100.835
100.745
99.960
99.755
99.665
99.665
99.055
97.895
96.765
96.575
95.795
95.250
94.890
94.100
93.470
93.565
92.665
92.050
91.575
91.185
90.100
89.665
88.375
87.485
86.665
86.285
85.185
84.055
83.420
82.760
82.090
80.665
80.340
79.565
78.665
77.900
76.990
76.240
75.330
74.665
73.795
73.125
72.000
71.415
70.665
70.055
69.665
68.355
67.665
67.535
66.765
66.320
66.025
65.340
64.765
64.565
63.960
63.665
63.220
63.080
62.515
62.245
61.760
61.090
61.085
60.665
60.335
59.805
59.795
59.565
59.005
58.985
58.665
58.425
58.330
57.960
57.960
57.705
57.665
57.665
57.045
57.415
56.765
56.765
56.860
56.855
56.665
56.310
56.375
56.565
55.950
56.195
56.575
56.090
56.055
56.225
56.090
56.200
56.125
55.815
56.160
55.665
55.905
56.045
56.090
56.250
56.370
56.475
56.665
56.725
57.100
56.690
57.145
57.095
57.275
57.945
58.095
58.180
58.320
58.525
58.340
58.705
58.705
58.815
58.665
58.915
59.000
58.980
58.895
59.100
58.755
58.340
58.535
58.665
58.565
57.755
57.435
57.525
57.375
57.150
57.385
56.755
56.655
57.000
57.175
56.990
56.660
56.440
55.905
55.760
55.665
54.890
54.665
54.430
54.435
54.330
53.755
53.485
51.925
52.120
51.805
51.665
51.535
50.860
50.470
50.705
49.665
49.005
48.665
48.665
48.565
47.945
47.330
47.155
46.130
45.575
45.380
45.240
44.515
44.040
43.725
42.240
40.765
39.950
39.220
39.005
38.665
38.635
38.915
39.320
39.245
38.955
38.570
38.535
38.090
37.640
37.375
35.665
35.665
35.665
35.330
35.470
34.995
34.570
34.810
34.665
34.665
34.225
34.000
33.810
33.320
33.145
32.665
32.910
32.515
32.665
32.440
32.320
32.470
31.710
31.760
31.425
31.720
31.005
30.900
30.660
30.665
30.765
30.440
30.325
30.050
30.090
30.090
29.860
30.005
29.805
29.275
29.665
29.525
29.565
29.570
29.315
28.995
29.015
29.015
28.760
28.960
29.070
28.915
28.665
29.045
29.045
28.655
28.755
28.815
28.765
29.135
28.765
28.665
28.945
28.845
28.615
28.755
28.715
28.470
28.815
28.715
28.615
28.795
28.515
29.045
28.755
28.860
28.615
28.750
28.815
28.805
28.665
28.860
28.665
28.890
28.755
28.575
28.765
28.915
28.665
28.415
28.520
28.375
28.625
28.665
28.420
28.760
29.185
29.010
28.820
28.755
28.565
28.620
28.765
28.870
28.575
28.330
28.420
28.760
28.525
28.585
28.335
28.125
27.905
28.010
28.105
27.760
27.525
27.665
27.415
27.465
27.150
26.915
27.100
26.895
26.760
26.805
26.765
26.470
26.685
25.915
26.120
26.090
26.225
25.815
25.565
25.500
25.045
25.055
24.905
24.855
24.370
24.425
24.200
23.795
23.805
23.515
22.860
22.900
22.760
22.665
22.665
22.515
22.185
22.275
21.545
21.700
21.470
20.825
20.245
20.265
19.665
19.795
19.765
19.860
19.665
19.470
19.665
19.225
19.180
19.055
18.760
18.665
18.845
18.380
18.070
18.285
17.810
17.470
17.475
17.470
16.860
16.860
16.665
16.765
16.665
16.665
16.515
16.425
16.445
16.375
16.190
16.035
15.620
15.720
15.815
15.140
15.385
15.245
15.105
14.610
14.420
14.665
14.435
13.905
13.665
13.665
13.990
14.080
13.700
13.535
13.470
13.350
13.150
13.475
12.765
12.765
12.795
12.805
12.665
12.815
12.815
12.535
12.860
12.535
12.470
12.340
12.345
12.515
12.320
11.910
12.010
12.340
11.960
11.910
11.850
11.910
11.890
11.805
11.570
11.860
11.665
11.665
11.765
11.565
11.175
11.330
11.665
11.375
11.480
11.570
11.280
11.280
11.230
11.340
11.090
10.990
11.295
11.325
11.130
11.315
11.185
10.860
10.905
11.385
11.110
11.080
11.100
10.860
10.760
11.110
11.035
10.665
10.665
10.860
10.760
10.815
11.045
10.805
10.665
10.760
10.910
11.230
10.765
10.760
10.815
10.910
10.815
10.665
10.515
10.765
10.860
10.960
10.665
10.895
10.665
10.860
10.625
10.760
10.795
10.665
10.665
10.765
10.990
10.795
10.535
10.665
10.470
10.435
10.340
10.665
10.665
10.440
10.570
10.575
10.665
10.345
10.180
10.200
10.335
10.100
10.330
10.470
9.915
9.960
9.900
10.000
10.375
9.855
10.035
9.815
9.860
9.760
10.005
10.040
9.815
9.570
9.470
9.865
9.850
9.665
9.765
9.900
9.185
9.320
9.470
9.660
9.100
9.205
8.710
9.175
9.295
9.045
8.665
8.760
8.805
8.570
8.750
8.665
8.740
8.665
8.250
8.300
8.300
8.555
8.335
8.240
7.980
7.775
7.805
7.995
7.620
7.525
7.675
8.195
7.475
7.270
7.170
7.200
6.905
6.765
6.960
6.905
6.665
6.665
6.665
6.805
6.805
6.665
6.665
6.665
6.665
6.525
6.470
6.565
6.770
6.665
6.535
6.340
5.860
6.130
6.190
6.380
5.990
5.665
5.815
5.665
5.805
6.185
5.525
5.440
5.565
5.430
5.795
5.890
5.385
5.010
5.025
4.985
5.320
5.335
4.475
4.840
4.590
4.295
4.470
3.960
3.765
4.035
4.160
4.250
3.855
3.855
3.760
3.860
3.665
3.755
3.760
3.665
3.665
3.895
3.845
3.665
3.760
3.665
3.665
3.895
3.890
3.665
3.665
3.665
3.665
3.665
3.665
3.535
3.665
3.665
3.665
3.665
3.570
3.665
3.665
3.665
3.665
3.515
3.665
3.665
3.665
3.665
3.475
3.665
3.535
3.515
3.420
