I [a.u.]
29.715
30.760
32.090
33.235
35.000
36.535
37.815
39.620
41.520
43.380
45.615
47.855
49.670
51.145
54.000
55.850
58.090
60.000
62.580
64.765
67.000
68.710
70.530
73.235
74.990
77.005
79.430
81.280
83.000
85.000
87.235
88.760
90.815
92.520
94.625
96.050
96.805
98.670
99.000
101.005
102.090
103.575
104.380
105.330
106.525
106.860
107.715
108.905
109.620
109.910
110.620
111.565
112.000
111.770
112.000
111.715
111.905
112.000
112.665
113.330
113.195
113.765
114.095
114.335
114.815
115.000
115.195
115.565
116.375
117.190
117.995
118.620
119.570
120.570
121.375
122.000
122.945
123.905
125.095
126.280
127.235
128.095
129.575
130.765
131.940
133.530
134.765
136.615
138.570
139.860
141.870
143.430
145.240
146.905
148.560
150.910
153.140
155.290
157.855
160.000
162.330
165.145
167.575
170.815
173.050
175.905
177.905
179.765
182.425
185.095
187.040
190.050
192.145
194.000
195.000
194.240
195.235
197.575
198.805
199.855
201.330
202.960
203.000
207.090
210.470
211.000
210.855
210.805
211.200
211.095
211.340
211.380
211.240
211.000
211.000
210.385
209.435
208.000
208.190
206.620
205.000
203.655
202.815
200.990
199.090
197.760
195.475
193.675
192.005
190.525
188.660
186.525
185.330
183.805
182.235
181.525
180.190
179.000
178.140
176.435
175.960
174.330
173.095
172.095
171.195
170.565
169.570
169.520
168.005
167.240
166.905
166.145
166.090
165.765
165.615
165.145
164.475
164.520
164.805
164.810
164.235
163.280
163.190
163.145
164.840
165.385
165.375
166.000
168.240
170.000
170.905
171.665
172.570
173.620
174.815
175.760
176.905
178.140
178.905
179.485
181.330
182.570
184.140
185.620
186.705
188.720
189.765
191.765
192.000
193.620
194.765
195.380
196.140
197.905
198.335
199.660
200.865
202.385
203.185
204.045
204.140
205.290
204.805
205.630
206.005
205.715
205.345
205.865
205.005
204.380
204.095
203.805
202.765
201.855
201.145
199.995
198.090
197.475
195.615
194.710
193.660
192.520
190.995
189.375
187.140
185.760
183.085
181.370
179.520
178.440
176.765
175.380
173.625
171.090
169.765
167.965
165.955
163.950
162.530
160.660
159.195
157.765
156.195
154.190
152.850
151.190
149.815
148.135
147.000
146.090
145.000
143.565
142.625
141.335
140.145
138.910
138.195
136.710
136.045
134.855
134.095
133.815
132.995
131.665
131.140
130.760
130.670
130.000
129.905
129.575
128.960
128.665
128.480
128.185
128.235
128.190
128.140
128.240
128.375
128.190
128.475
128.615
128.325
128.950
128.760
129.240
129.905
130.240
130.435
130.815
130.475
130.660
131.290
131.000
132.225
133.000
133.240
133.665
134.000
134.335
134.765
135.525
135.570
136.715
136.760
137.525
138.000
138.575
138.855
138.665
139.340
140.100
139.855
139.950
140.140
140.570
140.720
140.995
140.905
141.140
141.195
141.290
141.240
141.195
140.330
140.435
139.860
139.855
139.235
138.805
138.050
137.280
136.960
136.245
135.520
134.760
133.855
133.760
133.190
131.380
130.855
129.665
127.855
127.380
125.090
124.475
123.380
122.430
121.185
120.710
120.860
118.620
117.760
117.095
115.960
115.000
113.860
112.285
111.715
110.335
109.375
108.100
106.670
105.860
104.815
103.380
102.090
101.475
99.675
99.000
98.095
97.430
96.335
95.565
94.810
93.425
92.475
92.195
91.285
90.710
90.000
88.805
88.145
87.815
86.480
86.095
85.615
85.240
84.945
83.285
83.000
83.000
82.905
82.430
81.905
81.430
81.475
81.190
81.000
80.575
80.000
80.000
80.045
79.715
79.620
79.375
78.855
78.955
78.815
78.530
78.380
78.470
78.325
77.855
77.905
78.000
77.760
78.040
78.140
77.855
77.755
78.000
77.715
77.620
77.665
77.520
78.250
78.100
77.995
77.575
77.855
78.095
78.095
77.950
78.335
78.710
78.525
78.855
78.475
79.050
79.145
79.335
79.375
79.710
80.000
80.000
80.000
80.190
81.000
81.045
81.710
81.385
81.570
81.955
81.755
82.000
82.095
81.760
82.000
81.900
82.090
81.760
82.150
81.710
81.815
81.715
80.995
80.715
80.565
80.000
79.620
79.430
79.720
79.000
78.760
77.855
78.140
78.800
78.760
77.710
77.195
76.765
76.190
76.095
75.665
75.000
74.335
74.000
73.670
72.760
72.330
71.725
70.530
70.290
69.865
69.335
69.000
67.750
67.000
66.765
66.240
65.665
64.945
64.530
63.905
63.135
62.805
62.000
61.670
61.005
60.190
59.620
59.095
58.280
58.045
56.375
54.810
53.860
53.190
51.760
50.860
50.805
51.050
53.000
52.855
52.185
51.280
51.180
51.000
50.430
50.185
49.135
48.720
47.955
47.485
47.525
47.040
46.565
46.960
47.105
46.625
46.385
45.805
45.565
45.145
45.095
44.960
44.190
44.335
44.240
44.005
43.470
43.095
42.955
43.190
43.335
42.565
42.475
42.525
42.235
42.195
42.000
41.860
41.950
41.760
41.960
41.520
41.190
41.195
41.475
41.190
40.950
41.340
41.095
40.665
40.770
41.195
40.765
40.385
40.425
40.905
41.000
40.760
40.570
40.725
40.285
40.520
40.955
41.095
40.665
40.910
40.565
40.665
40.665
41.150
40.625
40.860
40.760
40.560
41.000
40.855
41.000
41.240
41.145
40.905
40.950
41.435
41.670
41.140
41.715
41.235
41.290
41.625
41.475
41.565
41.715
41.430
41.240
41.385
40.565
40.145
40.760
40.765
41.145
40.710
41.000
41.235
41.285
41.000
41.290
41.230
41.095
40.810
40.995
40.810
40.615
40.570
40.480
40.095
40.140
39.850
39.815
39.715
39.675
39.625
39.240
39.090
38.905
38.285
38.090
38.235
38.000
38.000
37.855
37.855
37.420
37.670
37.385
37.000
37.095
36.570
36.085
35.525
35.280
35.000
35.000
35.000
35.000
35.000
34.760
34.280
34.145
33.715
33.765
33.290
32.900
32.475
32.095
32.000
32.000
31.855
31.855
31.185
30.995
30.815
30.290
30.145
29.765
29.425
29.330
29.195
29.000
28.235
27.910
28.090
27.950
27.715
27.145
27.090
26.905
26.665
26.620
25.855
26.000
25.660
25.435
25.575
24.910
24.765
24.525
24.515
23.805
23.720
23.475
23.095
23.185
22.805
22.525
22.430
22.000
22.095
22.000
22.000
21.905
21.575
21.375
21.095
20.860
20.520
20.710
20.090
19.950
20.000
19.675
19.530
19.095
19.000
19.000
19.000
19.195
19.000
19.000
19.000
18.805
19.000
19.000
18.760
18.760
18.430
18.095
18.760
18.425
18.525
18.055
17.860
17.770
18.000
18.335
17.855
17.665
17.425
17.670
17.665
17.715
17.275
17.245
17.235
17.575
17.620
17.235
16.900
17.055
17.000
16.950
16.760
16.715
17.005
16.900
16.425
16.565
17.095
16.765
16.950
16.475
16.525
16.570
16.335
16.530
16.425
16.235
16.235
16.380
16.285
16.620
16.240
16.340
16.380
16.435
16.475
16.290
16.185
16.090
16.380
16.290
16.380
16.000
16.090
16.525
16.145
16.095
16.330
16.145
16.580
16.140
16.390
16.240
16.145
16.000
16.195
16.435
16.480
16.095
16.145
16.000
16.485
16.290
16.000
16.000
16.095
16.000
16.090
16.000
16.000
16.000
16.000
16.140
16.095
16.000
16.000
16.000
16.000
16.000
16.000
16.000
16.000
15.855
16.000
16.000
16.000
15.715
15.905
16.000
15.855
15.710
15.760
15.565
15.855
15.760
15.620
15.570
15.575
15.240
15.470
15.420
15.570
15.335
15.140
15.235
15.135
15.380
15.095
15.290
14.715
14.710
14.765
14.285
14.715
14.855
14.230
14.375
14.090
14.095
13.905
14.005
14.000
13.760
13.905
13.525
13.430
13.340
13.475
13.280
13.235
13.000
13.000
13.430
13.140
12.860
12.905
12.525
12.090
12.475
12.240
12.385
12.045
11.995
11.860
11.765
11.470
11.325
11.575
11.235
11.095
11.195
11.135
10.995
11.000
11.000
10.770
10.765
11.000
10.520
10.280
10.330
10.185
10.095
10.240
10.145
9.905
9.855
9.760
10.000
10.000
9.525
9.145
9.430
9.095
9.095
9.520
9.000
8.905
8.905
9.005
8.905
8.520
8.325
8.475
8.815
8.240
8.525
8.325
8.190
7.950
8.190
8.005
8.005
7.675
7.765
7.615
7.615
7.615
7.620
7.325
7.475
7.235
7.340
7.095
7.000
6.950
6.565
6.905
7.150
6.610
6.860
6.325
6.470
6.955
6.765
6.435
6.480
6.325
6.285
6.430
6.425
6.240
6.140
6.145
6.095
6.095
6.185
5.765
6.050
6.105
6.000
6.040
5.950
5.815
6.000
5.765
6.000
5.855
5.475
5.810
5.860
