I [a.u.]
3.895
3.895
4.810
4.405
4.030
5.205
5.220
5.885
5.335
5.535
6.205
6.270
6.400
6.795
6.885
6.895
6.905
6.895
7.420
7.510
7.420
8.000
7.905
8.160
8.420
8.405
8.660
9.000
9.030
9.025
9.000
9.540
9.795
9.895
9.895
10.135
9.895
10.435
10.030
9.895
10.000
9.895
9.895
10.255
9.895
10.570
9.895
9.895
10.015
9.895
9.895
9.790
9.905
10.105
9.655
9.580
9.565
9.655
9.310
9.160
9.885
9.120
8.985
9.150
9.030
9.145
9.120
8.895
9.285
8.895
8.895
8.895
9.015
8.905
8.800
8.895
9.015
8.895
8.895
9.025
8.895
8.890
8.895
9.015
9.360
9.130
9.130
9.265
9.445
9.420
8.985
9.655
9.655
9.895
9.445
9.895
9.895
9.760
9.895
10.135
10.000
10.460
10.015
10.475
10.805
10.895
10.805
10.520
10.895
10.895
10.805
11.300
10.905
10.905
11.645
11.325
11.135
11.195
11.145
11.445
11.015
11.535
11.550
11.385
11.460
11.505
11.370
11.355
11.565
11.430
11.445
11.420
11.315
11.130
11.210
11.000
10.895
10.895
10.895
11.195
11.195
11.120
10.760
10.760
10.765
10.340
10.895
10.370
10.255
10.210
9.895
9.655
9.895
9.795
9.400
9.160
9.160
9.375
9.555
9.100
8.895
8.805
8.895
8.805
9.030
8.995
8.895
8.805
8.655
8.655
8.645
8.460
8.430
8.565
8.815
8.555
8.460
8.220
8.655
8.670
8.370
8.505
8.255
8.460
8.665
8.595
8.595
8.895
8.495
8.895
8.905
9.420
9.240
9.240
9.555
9.100
8.995
9.775
9.670
9.480
9.895
9.610
9.895
10.295
10.475
10.105
10.135
10.310
10.400
10.790
10.895
10.585
10.835
10.760
10.895
11.205
11.280
11.090
11.340
11.325
11.025
11.375
11.670
11.345
11.295
11.670
11.555
11.805
11.655
11.775
11.655
11.895
11.655
11.595
11.775
11.895
11.895
11.805
11.670
11.685
11.100
11.655
11.385
11.430
11.400
11.255
11.445
11.145
11.030
11.135
10.985
10.895
10.895
10.895
10.985
10.595
10.790
10.595
10.760
10.790
10.385
10.100
10.370
10.340
10.430
10.450
9.955
10.325
10.210
10.195
9.905
9.905
9.895
10.315
10.015
9.895
9.895
9.895
9.505
9.905
9.895
9.895
9.985
9.895
9.805
9.380
9.905
9.605
9.490
9.895
10.000
9.905
9.760
10.135
10.030
10.435
10.255
10.010
9.995
10.550
10.145
10.460
10.355
10.895
10.895
10.895
10.905
10.895
10.895
11.265
11.550
11.460
11.415
11.655
11.505
11.835
12.135
11.895
12.135
12.150
12.160
12.550
12.535
12.895
13.075
13.135
12.700
13.145
13.640
13.550
13.310
13.670
13.625
13.595
14.205
13.965
13.830
14.205
14.010
14.895
14.895
14.655
14.655
14.790
14.595
15.010
15.240
15.340
15.130
15.315
15.090
15.340
15.790
15.010
15.255
15.490
15.585
15.420
15.895
15.655
15.220
15.355
15.235
14.995
15.670
15.355
15.340
15.285
15.550
15.285
15.345
15.430
15.580
15.235
15.010
15.160
15.235
14.905
14.905
14.895
14.895
15.075
14.895
14.605
14.895
14.750
14.565
14.555
14.670
14.140
14.235
14.645
14.430
14.255
14.025
14.310
14.090
14.015
14.025
14.015
13.905
13.875
14.295
13.790
13.805
13.905
13.805
14.195
13.985
13.985
14.135
14.105
14.300
13.895
13.995
14.340
14.205
14.555
14.000
14.240
14.355
14.775
14.760
14.015
14.595
14.495
14.670
14.895
14.685
14.790
14.895
14.700
15.345
15.565
15.040
15.235
15.885
15.655
15.790
15.815
16.415
16.225
15.805
16.525
16.565
16.430
16.760
16.595
16.595
16.895
16.790
17.195
17.195
16.595
16.905
17.435
17.385
17.400
17.850
17.470
17.785
18.390
18.550
18.895
18.760
18.805
18.895
18.895
18.895
19.025
19.235
19.895
19.895
19.895
19.895
19.895
19.895
20.010
20.260
20.000
19.905
20.135
20.445
20.140
20.910
20.680
20.380
20.700
20.705
20.695
20.920
21.055
21.040
20.875
21.240
20.905
21.115
21.905
22.010
22.145
21.905
21.775
21.565
21.890
22.000
21.330
21.350
21.115
21.310
21.865
21.385
20.475
20.015
20.425
20.325
20.330
20.030
20.015
20.015
20.190
20.030
19.895
19.895
19.895
19.895
19.895
19.795
19.885
19.895
19.775
19.160
19.660
19.645
19.250
19.010
18.775
18.525
18.535
18.170
17.775
17.300
17.425
17.765
17.885
18.795
18.695
18.035
18.335
17.885
17.535
17.805
17.660
17.045
16.895
17.195
16.895
17.130
17.000
17.000
17.335
16.895
17.015
16.895
16.895
16.895
16.895
16.895
16.895
16.895
16.895
16.895
16.895
16.895
16.895
16.795
16.895
16.895
16.795
16.895
16.895
16.895
16.895
17.000
16.895
16.895
17.000
16.895
16.895
16.895
17.300
16.895
16.895
17.015
17.035
17.335
17.000
17.000
17.295
17.115
17.195
17.270
17.655
17.475
17.245
17.455
17.515
17.705
17.970
18.420
17.940
18.120
18.070
18.070
18.270
18.365
18.310
18.450
18.660
18.570
18.895
18.895
18.895
18.885
18.750
19.000
18.895
19.560
18.895
19.245
19.390
19.420
19.535
19.520
19.795
19.780
19.765
19.460
19.895
19.895
19.795
19.695
19.760
19.680
19.760
19.895
19.895
19.895
19.895
19.895
19.895
19.895
19.895
19.895
19.895
20.030
19.895
19.895
19.895
19.895
20.155
19.895
19.895
19.895
19.895
19.905
20.020
19.895
19.895
19.895
19.895
19.760
19.895
19.885
19.795
19.895
19.805
19.895
19.750
19.655
19.790
19.670
19.345
19.530
19.345
19.195
19.180
18.895
18.895
18.895
18.895
18.895
18.790
18.895
18.675
18.640
18.525
18.420
18.565
17.905
17.995
17.570
17.105
17.630
17.505
17.000
17.195
16.895
16.895
16.895
16.895
16.655
16.665
16.885
16.635
16.660
16.245
16.195
15.665
15.655
16.065
15.895
15.235
15.230
15.395
14.985
14.895
15.015
14.495
15.020
14.635
14.225
14.560
14.545
13.895
13.885
13.905
14.030
13.900
13.655
13.900
13.680
13.100
13.585
13.340
12.995
13.295
12.895
12.895
12.895
12.760
12.655
12.800
12.700
12.750
12.630
12.660
12.285
12.145
12.165
12.220
12.260
11.760
12.000
11.895
12.330
11.895
12.000
11.895
11.805
11.585
12.030
11.770
11.895
11.455
11.355
11.700
11.555
11.640
11.355
11.150
11.130
11.715
11.620
11.650
11.455
11.040
11.295
11.180
11.315
11.540
11.235
11.330
11.295
11.260
11.570
11.205
11.010
11.240
11.120
11.130
10.995
11.165
11.015
11.125
11.120
11.300
11.195
11.245
10.895
11.425
11.125
11.025
10.895
11.090
11.095
11.195
10.905
11.035
11.105
11.285
11.150
11.560
11.025
11.015
11.345
11.140
11.470
11.670
11.100
11.170
11.150
11.470
11.210
11.365
11.130
11.400
11.385
11.455
11.560
11.295
11.655
11.780
11.635
11.685
11.695
11.090
11.025
11.130
11.255
11.305
11.025
11.140
11.660
11.560
11.355
11.085
11.585
11.000
10.995
11.225
11.420
11.090
11.085
10.985
10.895
11.170
10.995
10.985
10.895
10.895
10.895
11.015
10.895
10.895
10.895
10.895
10.895
10.895
10.895
11.195
10.895
11.135
10.895
10.895
10.895
10.895
10.895
10.795
10.795
11.090
10.755
11.195
10.775
10.755
10.520
10.450
10.270
10.895
10.555
10.545
10.440
9.905
10.005
10.105
10.510
10.220
10.195
9.755
9.775
10.030
9.755
9.320
9.550
9.465
9.570
9.695
9.515
9.115
9.195
8.760
8.895
9.025
8.895
8.760
8.655
8.660
8.500
8.685
8.430
8.575
8.170
8.340
8.575
8.205
7.985
7.645
8.195
8.030
7.775
7.785
7.515
7.345
7.465
6.985
7.470
7.440
6.895
6.895
7.000
7.195
7.030
7.030
7.000
6.895
7.150
6.895
6.795
6.595
6.895
6.895
6.795
6.895
6.670
6.885
6.475
6.775
6.785
6.565
6.455
5.995
6.775
6.675
6.130
6.420
6.195
6.225
6.115
6.415
6.525
5.895
5.995
5.895
5.885
5.895
5.755
5.695
5.895
5.895
5.445
5.775
5.670
5.795
5.180
5.220
5.530
5.650
4.795
4.895
5.130
5.130
4.690
4.770
4.405
4.210
4.925
4.520
5.085
4.855
4.240
4.460
4.425
4.495
3.895
4.405
4.105
4.035
4.150
3.895
3.895
3.895
4.495
4.105
3.895
3.895
