I [a.u.]
25.425
26.035
27.440
28.665
30.240
31.310
32.625
34.130
35.070
37.205
38.950
40.710
42.535
44.390
46.535
47.665
49.805
51.155
53.570
55.265
57.280
59.145
61.210
63.280
64.280
66.240
68.385
69.595
71.865
72.980
74.955
76.835
77.630
79.820
81.020
82.660
83.780
83.845
85.965
86.950
87.715
89.055
89.385
90.890
90.690
91.680
92.060
93.395
94.075
93.575
94.820
95.260
96.040
95.520
95.525
95.635
95.045
96.005
96.230
96.585
97.075
96.480
97.650
96.430
97.565
97.930
98.110
98.165
98.405
99.855
99.320
100.825
100.865
101.540
102.390
102.860
104.030
103.265
105.500
106.080
106.725
107.540
108.535
110.220
110.075
111.895
112.030
113.860
114.675
116.075
117.625
118.500
120.845
121.410
123.995
124.995
127.160
128.035
130.465
132.155
133.565
135.990
137.115
140.185
141.175
144.265
145.390
147.275
149.130
151.045
152.585
154.235
156.430
158.040
158.660
156.740
158.960
159.305
160.540
161.135
162.150
162.675
162.890
165.545
167.905
167.755
168.185
168.610
167.850
167.825
167.555
169.005
167.200
166.880
165.870
165.825
164.240
163.955
162.145
161.860
160.225
159.150
158.280
156.565
155.120
153.015
151.735
149.440
147.630
146.160
145.070
142.985
141.475
140.445
139.200
137.570
137.600
135.230
134.205
132.730
132.220
130.280
129.630
128.175
127.680
126.815
125.905
124.935
124.180
122.865
122.280
121.460
120.810
120.515
120.195
118.285
118.540
117.420
117.280
117.025
115.995
114.935
115.160
114.535
114.490
114.125
114.130
114.340
114.610
115.890
115.770
115.555
115.780
115.620
116.665
115.635
115.850
116.710
116.760
116.600
116.990
117.240
117.085
117.130
117.375
117.275
117.550
117.700
117.320
117.715
117.465
117.300
116.990
116.380
116.565
115.995
115.850
116.090
115.035
114.770
113.695
113.565
112.420
111.405
110.660
109.780
108.680
107.485
106.335
105.085
103.755
101.945
101.130
99.815
97.955
97.100
95.420
93.995
92.385
90.730
89.055
87.280
85.640
84.225
82.385
80.950
79.025
77.315
75.860
73.805
72.550
70.730
68.990
68.140
66.500
64.890
63.515
61.805
60.595
59.405
57.380
56.065
54.710
53.205
52.215
50.710
49.675
48.570
47.535
46.380
45.100
43.995
42.985
41.585
40.675
39.930
38.615
37.535
36.335
34.840
34.570
33.965
32.885
31.710
31.895
30.415
29.840
28.965
28.275
27.415
26.570
26.060
25.240
24.710
24.035
22.805
22.390
22.000
21.675
20.420
19.620
19.000
19.000
18.615
18.000
17.710
16.710
16.095
15.965
15.570
14.745
14.065
13.745
13.000
12.930
11.890
11.650
11.220
10.565
10.095
9.670
9.495
8.745
8.380
8.000
7.435
7.255
6.850
6.380
6.255
6.000
6.000
5.710
5.570
5.275
5.000
5.000
4.820
5.000
4.420
4.065
4.490
3.950
4.075
4.300
3.720
3.580
3.425
3.830
4.270
4.210
3.145
3.460
3.685
3.295
3.000
3.180
3.255
3.440
3.555
3.270
3.760
3.585
3.845
3.980
3.500
3.795
4.125
4.085
4.290
4.455
4.900
4.450
5.060
5.000
5.035
5.295
5.330
5.130
5.145
5.130
5.000
5.470
5.615
5.395
5.000
5.095
5.310
5.615
5.965
5.240
5.180
5.435
5.295
5.180
5.035
5.320
5.145
5.000
5.000
5.000
5.035
5.140
5.000
5.000
4.965
4.930
4.745
4.855
4.595
4.255
4.710
4.535
3.800
3.900
3.960
3.795
3.540
3.760
3.565
4.170
3.970
3.145
3.070
3.385
3.305
3.000
3.295
3.180
3.035
3.295
3.000
3.035
3.035
3.175
3.000
3.035
3.000
3.000
3.000
3.000
3.000
3.000
3.000
3.000
3.000
3.000
3.000
3.000
3.000
3.000
3.000
3.140
3.000
3.180
3.000
3.000
3.000
3.000
3.295
3.000
3.000
3.000
3.000
3.000
3.475
3.000
3.000
3.000
3.000
3.590
3.600
3.235
3.625
3.580
3.845
3.615
3.225
3.235
4.025
3.140
3.730
3.095
3.405
3.730
4.180
3.320
4.085
3.935
3.965
4.350
4.105
3.770
3.850
4.950
4.485
3.655
5.095
4.530
4.420
4.820
4.810
5.000
5.000
4.965
5.140
4.745
5.000
5.440
5.110
5.240
5.035
4.085
5.035
5.585
4.985
5.290
4.890
5.340
5.620
5.485
5.145
5.145
5.340
5.905
5.630
5.385
5.240
5.520
5.520
5.860
6.110
6.005
5.705
5.890
5.645
5.860
5.825
5.805
5.760
5.855
6.000
6.195
6.145
6.290
6.325
6.410
6.485
6.570
6.145
6.290
6.290
6.340
6.670
6.440
6.450
6.560
6.695
6.860
6.860
7.020
6.905
7.035
7.045
7.125
7.230
7.330
7.340
7.515
7.695
7.590
8.145
7.825
8.040
7.805
8.435
8.450
7.700
8.650
8.410
8.475
8.420
8.740
8.760
8.945
9.035
9.200
9.235
9.060
9.660
9.485
9.585
9.855
9.715
9.860
9.805
10.145
10.000
10.245
10.520
10.585
10.485
10.750
10.750
10.750
10.860
11.090
11.180
11.290
11.290
11.485
11.570
11.800
12.110
12.195
12.470
12.680
12.525
12.290
12.895
13.160
13.070
13.570
13.205
13.090
13.895
14.130
14.195
14.305
14.485
14.280
14.445
14.750
14.925
14.715
14.860
15.330
15.410
15.620
15.440
15.570
15.860
15.610
15.895
16.005
15.890
16.145
16.715
16.715
16.620
16.460
16.715
16.860
16.815
16.890
16.910
17.005
17.345
17.605
17.425
17.265
17.425
17.645
17.520
17.750
17.485
17.750
17.605
17.575
17.715
17.715
17.855
17.855
17.750
17.715
17.845
18.035
17.860
17.715
17.855
17.605
17.895
17.895
17.845
17.860
17.710
17.705
17.860
17.895
17.985
17.825
17.715
17.575
17.615
17.715
17.380
16.995
17.540
17.140
17.000
16.945
16.910
16.895
16.715
16.585
16.475
16.495
16.325
16.620
16.230
16.130
16.145
16.145
15.860
15.890
15.750
15.895
15.825
15.715
15.715
15.605
15.425
15.645
15.300
15.180
15.245
15.050
15.020
14.650
14.750
14.470
14.235
14.375
14.730
14.265
14.190
13.785
13.860
14.300
13.895
13.825
13.990
13.400
13.410
13.460
13.615
13.550
13.360
13.200
12.960
13.145
13.110
13.055
12.735
12.715
12.715
12.860
12.870
12.605
12.715
12.570
12.485
12.570
12.390
12.375
12.385
12.180
12.180
12.135
12.145
12.035
11.810
11.860
11.810
11.940
11.710
11.890
11.825
11.825
11.825
11.615
11.760
11.750
11.620
11.585
11.530
11.435
11.485
11.895
11.760
11.645
11.680
11.435
11.580
11.860
11.840
11.825
11.580
11.680
11.340
11.340
11.715
11.620
11.615
11.435
11.520
11.460
11.855
11.375
11.375
11.620
11.335
11.340
11.715
11.485
11.585
11.870
11.620
11.280
11.715
11.615
11.615
11.715
11.570
11.820
11.485
11.380
11.650
11.560
11.715
11.565
11.760
11.730
11.750
11.605
11.620
11.570
11.820
12.090
11.800
11.655
11.655
11.650
11.620
11.755
11.915
11.955
11.750
11.715
11.535
11.715
12.000
11.715
11.680
11.660
11.615
11.435
11.555
11.660
11.680
11.530
11.595
11.580
11.680
11.425
11.485
11.425
11.325
11.425
11.585
11.280
11.385
11.680
11.680
11.275
11.425
11.300
11.435
11.240
11.520
11.145
11.180
11.485
11.580
11.390
11.240
11.110
10.890
11.035
11.180
10.960
10.715
11.000
10.715
10.825
10.860
10.890
10.875
10.650
10.620
10.650
10.805
10.520
10.385
10.485
10.240
10.385
10.240
10.000
10.340
9.855
9.860
9.855
9.715
9.650
9.860
9.695
9.520
9.650
9.455
9.430
9.145
9.145
9.165
9.610
9.135
8.635
8.750
8.825
8.920
8.710
8.625
8.820
8.515
8.520
7.985
8.145
8.145
8.485
7.955
7.990
8.230
7.845
7.420
7.450
7.570
7.505
7.385
7.485
7.245
7.110
7.255
7.185
6.840
6.715
6.620
6.620
6.775
6.665
6.470
6.530
6.290
6.145
6.390
6.440
6.380
6.290
6.145
6.290
6.145
6.110
6.285
6.145
6.035
5.890
6.035
6.145
6.145
6.000
6.000
5.825
5.855
5.725
5.825
5.650
5.715
5.520
5.890
5.415
5.645
5.425
5.285
5.325
5.255
5.290
5.485
5.145
5.145
5.145
4.950
5.145
5.245
5.095
5.000
5.035
4.855
4.385
5.145
5.005
4.660
5.035
4.865
4.245
4.720
4.560
4.745
4.115
4.150
4.235
3.705
3.870
3.875
3.615
4.190
