I [a.u.]
6.815
6.915
7.440
8.000
9.000
11.100
15.090
29.725
75.250
103.160
95.775
81.815
79.395
77.340
74.300
73.000
72.430
71.950
71.250
69.915
67.100
67.390
67.335
66.100
64.290
64.330
63.010
59.670
61.810
67.800
68.900
44.200
19.100
13.100
11.860
11.760
11.480
11.495
11.815
12.005
11.990
11.515
11.730
12.190
12.340
13.285
14.285
14.330
14.865
15.525
16.100
16.285
16.815
17.575
17.810
17.530
18.010
17.915
18.190
18.385
18.015
18.200
18.725
19.100
19.425
19.910
19.190
19.100
19.100
18.960
18.475
18.100
18.100
17.525
17.040
17.140
17.140
17.200
17.675
17.825
18.100
18.190
18.615
19.100
19.100
18.775
18.430
18.425
18.430
19.000
18.955
19.100
19.100
19.100
19.100
19.100
19.430
19.950
20.575
21.765
23.295
24.385
25.050
25.485
25.300
25.815
26.190
26.440
26.770
27.425
28.055
28.190
28.375
28.685
29.100
29.340
29.200
29.190
29.515
29.190
29.100
29.010
28.955
29.330
29.625
29.855
30.335
30.540
30.380
30.100
30.290
30.240
30.380
30.465
30.955
31.100
31.330
31.050
31.285
31.190
31.395
31.200
31.090
31.285
31.440
31.240
31.250
31.625
32.100
32.100
32.100
32.815
33.815
34.100
34.440
35.000
35.100
35.100
35.100
35.100
35.725
35.100
35.100
35.245
35.240
35.100
35.100
35.100
35.100
35.100
34.100
33.280
32.240
31.770
31.385
31.100
30.190
30.100
29.620
29.575
29.770
29.705
29.395
29.000
29.100
28.615
28.850
29.000
29.250
29.435
29.620
29.715
30.095
30.200
30.200
30.805
31.340
31.540
32.010
32.100
32.190
33.915
36.900
41.565
43.240
42.250
42.190
42.770
42.900
43.385
43.485
43.680
44.065
44.485
44.755
45.185
45.805
46.015
46.000
42.960
38.855
38.100
38.385
38.825
38.685
38.465
38.190
38.100
38.010
38.000
38.100
38.100
37.915
38.190
37.860
38.285
38.100
37.865
38.100
38.100
38.100
38.000
37.770
38.010
38.000
38.010
37.860
38.100
37.955
37.955
38.000
38.100
38.050
38.000
37.685
37.300
37.435
37.200
37.175
37.005
37.350
37.100
36.570
35.100
35.100
35.300
34.770
34.000
33.100
32.680
32.200
32.100
32.100
32.240
32.100
31.915
31.575
31.335
31.195
31.290
31.240
31.010
30.770
30.950
30.810
31.100
30.575
30.680
30.900
31.525
32.350
35.100
42.685
48.300
48.775
46.000
46.005
46.100
47.340
48.100
48.100
49.390
50.430
51.100
50.960
48.100
39.090
31.190
29.860
29.770
29.625
30.145
30.440
30.200
30.540
30.660
31.860
32.190
34.200
35.100
38.475
62.625
98.100
102.910
95.335
92.340
95.675
98.715
101.715
106.100
110.915
115.390
121.860
118.465
90.625
48.010
35.010
33.715
32.915
32.660
33.000
32.565
32.535
32.810
32.630
33.100
33.055
32.630
32.815
32.775
32.870
32.435
32.200
32.100
32.725
32.870
34.100
38.390
40.950
39.825
39.010
39.440
39.865
40.480
41.340
42.100
43.820
43.815
39.855
33.160
31.100
30.865
30.635
30.345
30.285
29.865
30.100
29.715
29.910
29.190
29.100
29.100
28.955
28.675
28.330
28.090
28.100
27.780
27.535
27.345
27.245
27.100
27.385
27.000
27.000
26.440
26.190
26.000
26.200
26.000
25.855
25.575
25.475
25.445
25.100
25.090
24.960
25.015
24.815
24.620
24.250
24.440
24.530
24.350
24.200
24.200
23.770
23.910
23.945
24.055
23.860
23.865
23.775
23.720
23.725
23.625
23.290
23.200
23.250
23.190
23.240
23.385
23.390
23.190
23.675
23.725
23.335
23.350
23.625
23.760
23.820
23.815
23.610
23.575
23.920
23.815
23.815
23.815
24.285
24.240
24.285
24.430
24.385
24.350
24.665
24.810
24.730
25.000
25.425
25.335
25.575
26.100
26.440
27.675
32.940
38.100
39.810
40.385
43.580
48.250
54.250
55.195
47.375
32.190
27.675
27.100
27.200
27.190
27.440
27.200
27.330
27.340
27.535
27.660
27.675
27.670
27.815
27.955
27.955
27.525
27.760
27.755
28.000
29.195
32.100
32.570
33.870
35.340
39.080
43.000
41.770
34.770
29.915
29.910
29.910
29.850
29.920
30.240
32.490
34.240
34.250
35.100
38.000
40.280
38.200
32.395
29.805
29.520
29.770
30.245
29.665
29.825
30.100
29.760
29.715
30.290
30.110
30.185
30.090
30.415
30.230
30.290
30.245
30.520
30.245
30.000
29.440
29.285
29.340
29.675
29.780
30.100
30.780
31.810
32.285
32.100
32.100
32.515
33.090
33.340
33.385
33.770
34.100
34.100
34.465
34.670
35.100
35.390
37.435
37.605
38.340
39.435
41.395
45.055
49.440
53.960
59.190
61.000
58.430
51.245
50.000
51.100
54.010
55.860
57.765
62.140
65.770
66.100
64.100
65.015
69.750
76.825
85.605
94.330
101.900
111.340
126.085
148.710
178.815
209.575
243.415
255.000
255.000
255.000
255.000
255.000
255.000
255.000
255.000
255.000
255.000
255.000
255.000
255.000
255.000
255.000
255.000
255.000
255.000
255.000
255.000
255.000
255.000
255.000
255.000
255.000
255.000
255.000
255.000
255.000
255.000
129.760
62.870
60.090
57.375
54.515
53.190
50.995
50.100
48.385
47.605
46.010
45.285
44.815
44.280
43.715
43.100
45.490
52.380
61.425
63.850
57.625
46.090
40.125
38.670
38.335
38.190
38.100
38.100
37.955
38.100
37.860
37.900
37.335
37.100
37.190
36.955
37.330
37.440
37.340
37.475
37.430
37.250
37.565
37.870
37.670
37.770
37.775
38.100
38.100
38.290
38.375
38.805
39.100
39.525
39.725
40.055
40.575
41.100
41.675
42.195
42.575
43.280
43.860
45.245
45.665
46.815
48.100
49.585
50.280
51.400
52.315
53.100
53.440
54.625
55.800
57.575
59.610
61.765
64.040
65.950
68.535
71.485
75.100
79.280
84.430
94.825
108.000
122.200
131.690
142.415
157.340
182.130
213.265
239.180
255.000
255.000
255.000
255.000
255.000
255.000
255.000
255.000
255.000
255.000
255.000
255.000
255.000
255.000
255.000
255.000
255.000
255.000
255.000
255.000
255.000
255.000
255.000
255.000
255.000
255.000
255.000
168.305
73.675
69.190
65.530
61.370
58.375
55.880
54.290
53.475
52.820
51.625
50.955
49.290
46.245
43.625
42.440
41.665
40.720
40.150
39.435
38.190
37.385
35.525
35.100
35.810
37.475
38.815
41.390
44.190
47.765
47.100
44.625
41.250
38.815
37.850
35.100
32.330
29.470
28.185
27.010
26.190
25.340
24.665
24.340
23.955
23.475
23.230
22.480
22.525
22.190
22.670
22.375
22.390
22.575
22.485
22.340
21.465
19.945
19.100
19.100
18.675
18.675
18.575
18.100
18.000
18.100
18.100
18.100
17.775
17.435
17.285
17.185
17.050
16.855
16.580
16.435
16.245
16.425
16.100
16.100
16.100
16.100
16.250
16.100
16.000
16.100
15.910
15.910
15.955
15.955
15.520
15.760
15.345
15.430
15.580
15.280
15.100
15.200
14.620
15.110
14.815
14.860
14.715
14.435
14.530
14.200
14.190
14.290
14.385
14.520
14.100
14.100
13.860
14.060
14.000
14.000
14.010
14.100
14.100
13.805
13.570
13.675
13.870
13.585
13.970
13.665
13.475
13.725
13.290
13.100
13.100
13.245
13.245
13.190
13.100
13.100
12.955
12.855
12.825
12.760
13.190
13.000
13.285
12.960
13.100
13.100
13.190
13.100
13.715
13.430
13.520
13.865
13.805
13.915
14.100
14.330
14.430
15.095
15.150
15.045
14.855
14.620
14.585
14.010
14.000
13.380
13.100
12.705
12.675
12.775
12.535
12.425
12.100
12.000
12.100
11.675
11.860
11.385
11.100
11.100
11.100
10.915
10.760
10.750
10.240
10.435
10.245
10.100
10.190
10.100
10.100
9.960
10.000
9.870
9.760
10.100
9.910
10.000
10.000
9.625
9.815
9.950
10.100
10.245
10.190
10.715
10.915
11.290
11.200
11.330
11.870
11.960
11.440
10.705
10.010
9.430
9.200
9.485
9.715
9.475
9.430
9.340
9.495
9.250
9.910
10.000
9.475
8.575
8.100
7.675
8.100
8.105
7.860
7.755
7.530
7.485
7.725
7.495
7.540
8.040
7.815
7.715
7.810
7.760
7.910
7.915
7.825
7.870
8.385
7.860
7.725
8.190
8.535
8.100
8.435
7.915
8.245
8.435
8.535
8.520
8.730
9.580
10.795
12.680
15.005
17.285
18.430
19.100
19.285
20.485
22.155
22.475
21.520
18.430
14.330
11.290
9.290
8.670
8.285
7.615
6.990
7.010
