I [a.u.]
27.325
22.985
19.330
18.000
17.505
16.735
16.235
16.330
16.160
16.080
16.330
16.080
16.175
16.080
16.235
16.235
16.620
16.175
16.575
16.770
16.470
17.145
17.175
17.505
17.655
17.885
18.080
18.355
18.830
19.080
19.000
19.175
19.080
19.080
19.275
19.080
19.170
20.025
19.635
19.330
20.330
20.670
20.695
20.520
20.755
20.635
21.040
21.080
21.695
21.370
22.000
21.990
22.080
22.235
22.605
22.525
22.815
22.980
23.215
23.170
23.555
24.075
24.345
24.910
24.670
25.080
25.675
25.990
26.175
26.175
26.080
26.865
27.080
26.830
27.080
27.275
27.865
28.195
28.425
28.425
29.000
29.080
29.740
29.740
30.215
30.255
30.555
30.400
30.795
30.910
31.000
31.080
30.865
30.730
30.905
30.640
30.525
30.750
30.805
30.640
30.970
30.370
30.330
30.500
31.235
30.830
30.755
30.505
30.895
30.900
31.235
30.835
30.750
30.595
30.700
30.370
30.275
30.175
30.090
30.080
30.265
30.265
30.315
30.545
31.275
31.410
31.775
31.425
31.805
31.830
32.080
31.945
32.080
32.080
32.080
32.080
32.080
32.080
32.080
32.080
32.080
32.330
32.080
32.080
32.080
32.080
32.080
32.080
32.080
32.080
31.990
32.080
32.080
32.175
32.420
32.355
32.525
32.485
32.670
32.990
33.175
33.460
33.615
33.810
33.865
33.985
34.080
34.265
34.865
34.770
34.910
35.080
34.945
35.080
35.080
35.080
35.330
35.530
36.320
36.290
36.325
37.080
37.155
36.890
36.925
37.580
37.605
37.500
37.545
37.945
37.265
37.660
37.620
37.330
36.220
35.630
35.080
35.080
35.080
35.080
35.080
34.990
34.910
35.080
34.750
34.560
34.525
34.330
34.485
34.000
34.095
34.080
34.035
34.330
34.035
34.670
34.830
34.830
35.080
35.080
34.985
34.945
34.945
35.080
34.895
34.750
34.805
34.990
34.845
34.670
34.635
34.345
34.525
34.505
34.515
34.710
34.770
34.750
34.990
35.080
35.080
35.080
36.110
37.545
38.990
41.740
44.140
46.950
52.045
58.040
60.275
60.420
59.460
58.410
56.670
55.020
53.695
52.420
52.310
51.260
51.080
51.080
51.080
50.750
51.080
50.420
50.750
50.425
50.865
50.670
50.855
50.885
51.080
51.080
50.885
50.865
50.790
51.080
51.080
51.080
51.080
51.080
51.080
51.080
50.740
50.575
50.000
49.795
50.000
49.330
48.660
48.865
49.420
49.660
50.275
50.425
50.595
50.865
50.865
51.080
51.080
52.080
51.270
51.270
51.080
51.470
51.740
52.920
52.295
51.080
50.080
48.080
46.515
44.195
41.715
38.425
35.785
35.080
34.080
33.805
33.330
32.695
32.450
32.950
32.420
32.080
32.525
32.275
32.080
31.885
31.885
32.080
32.080
32.080
32.080
31.330
31.515
31.365
31.465
31.080
31.080
30.525
30.805
30.175
30.160
30.020
29.595
29.330
28.885
28.305
27.675
27.865
27.370
26.855
27.080
27.080
27.080
27.660
30.835
33.620
34.990
34.595
33.670
33.245
32.775
34.450
37.325
37.370
35.080
35.080
34.255
32.315
31.565
30.885
30.000
29.850
29.160
28.595
28.140
28.100
27.695
27.170
27.080
27.080
26.830
27.080
27.095
27.080
27.080
27.170
27.080
27.080
27.080
27.310
27.330
27.000
26.865
27.000
27.235
27.080
26.675
26.855
27.330
27.135
27.060
26.750
27.040
27.215
27.480
27.215
27.290
27.080
27.450
27.970
27.920
27.905
28.330
28.310
28.365
28.850
28.650
29.080
29.110
29.080
29.295
29.430
29.400
29.440
29.845
30.040
31.000
30.820
30.535
31.000
31.195
30.925
31.595
31.680
31.750
32.000
32.080
32.215
31.945
32.275
32.390
32.465
32.820
32.715
32.885
33.115
33.200
33.000
32.775
32.330
32.365
32.460
32.080
32.080
31.945
31.575
31.945
31.925
32.080
31.805
31.885
31.945
32.080
32.275
32.080
32.080
32.425
32.525
32.775
33.215
33.670
33.230
33.320
33.460
34.080
33.790
34.080
34.080
34.080
34.365
34.555
34.750
34.740
35.080
35.080
34.990
35.080
35.170
35.080
36.240
37.250
37.330
37.990
39.300
40.000
41.170
42.235
43.675
45.330
46.620
47.635
50.080
51.940
55.435
58.815
63.090
66.235
70.710
77.330
88.870
107.230
138.115
189.610
255.000
255.000
255.000
255.000
255.000
255.000
255.000
255.000
255.000
255.000
255.000
255.000
255.000
255.000
255.000
255.000
255.000
255.000
255.000
255.000
255.000
255.000
255.000
255.000
255.000
255.000
255.000
255.000
255.000
255.000
255.000
255.000
255.000
255.000
255.000
255.000
255.000
255.000
255.000
255.000
255.000
255.000
255.000
255.000
255.000
255.000
255.000
255.000
255.000
255.000
255.000
255.000
255.000
255.000
255.000
255.000
255.000
255.000
255.000
255.000
255.000
255.000
255.000
255.000
255.000
255.000
255.000
255.000
255.000
255.000
255.000
255.000
255.000
255.000
255.000
255.000
255.000
255.000
255.000
255.000
255.000
255.000
255.000
255.000
255.000
255.000
255.000
255.000
255.000
255.000
255.000
255.000
255.000
255.000
255.000
255.000
255.000
255.000
255.000
255.000
255.000
255.000
255.000
255.000
255.000
255.000
255.000
255.000
241.175
67.795
53.080
53.885
55.595
57.615
60.080
63.355
65.885
68.205
70.790
76.525
82.330
87.410
91.330
102.330
112.870
129.085
160.390
221.035
255.000
255.000
255.000
255.000
255.000
255.000
255.000
255.000
255.000
255.000
255.000
255.000
255.000
255.000
255.000
255.000
255.000
255.000
255.000
255.000
255.000
255.000
255.000
255.000
255.000
255.000
255.000
255.000
255.000
255.000
255.000
255.000
255.000
255.000
255.000
255.000
255.000
255.000
255.000
255.000
255.000
255.000
255.000
255.000
255.000
255.000
255.000
255.000
255.000
255.000
255.000
255.000
255.000
255.000
255.000
255.000
255.000
255.000
255.000
255.000
255.000
255.000
255.000
255.000
255.000
255.000
255.000
255.000
255.000
255.000
255.000
255.000
255.000
255.000
255.000
255.000
255.000
255.000
255.000
255.000
255.000
255.000
255.000
255.000
255.000
255.000
255.000
255.000
255.000
255.000
255.000
255.000
255.000
255.000
255.000
255.000
255.000
255.000
255.000
255.000
255.000
255.000
255.000
255.000
255.000
255.000
107.130
28.615
28.170
27.560
27.080
26.885
26.650
26.080
25.250
25.215
24.695
23.945
23.255
22.330
22.235
22.275
21.710
21.420
20.545
20.345
19.330
19.080
19.080
19.080
19.080
18.885
18.735
18.485
18.460
18.080
18.080
17.795
17.885
17.330
17.370
17.255
17.485
16.775
16.885
16.250
16.425
16.080
16.160
16.080
16.080
16.080
16.080
16.080
16.080
16.080
15.655
15.490
15.655
15.420
15.845
15.265
15.255
15.770
15.410
15.080
14.985
15.365
15.080
15.000
15.330
14.660
14.855
14.555
14.845
15.080
14.750
14.605
14.710
14.460
14.460
14.425
14.425
14.170
14.505
14.985
14.905
14.330
14.990
14.525
14.305
14.410
14.595
14.080
14.080
13.855
13.635
14.215
14.080
13.885
13.410
13.330
13.175
13.595
13.990
13.430
13.500
13.445
13.265
13.425
13.805
13.355
13.525
13.175
13.160
13.080
12.980
13.080
13.080
13.080
13.080
13.080
13.000
13.125
12.845
12.830
12.985
12.540
12.885
12.670
13.080
12.215
12.445
12.620
12.560
12.410
12.445
12.265
12.170
12.080
12.410
11.945
12.275
11.925
12.040
12.080
12.080
11.525
11.830
11.985
11.710
11.695
11.080
11.080
11.080
11.080
11.240
11.000
11.100
10.845
10.925
10.990
10.660
11.080
10.410
10.080
10.305
10.080
10.080
10.080
10.465
10.120
10.080
10.080
10.080
9.925
9.925
9.480
10.140
10.080
9.885
9.265
9.835
9.600
10.000
10.000
9.620
9.325
9.815
9.255
9.895
9.740
9.585
9.275
9.410
9.695
9.750
10.000
9.730
9.675
10.080
10.080
10.080
10.235
10.330
10.080
10.330
10.160
10.500
10.830
10.910
10.660
10.790
10.175
10.660
10.845
11.000
10.620
10.410
10.505
10.405
10.885
10.945
10.895
10.575
10.555
11.000
11.090
10.855
10.855
11.080
10.885
11.555
12.080
12.990
13.160
14.340
15.465
15.480
16.080
16.525
17.140
17.305
18.170
18.170
18.215
18.450
18.655
18.945
18.885
19.080
19.080
19.080
19.080
19.080
19.080
19.080
18.990
19.080
19.080
19.080
18.355
18.170
18.000
17.425
17.670
17.265
16.990
16.620
16.905
16.750
16.805
16.740
17.050
17.325
17.555
17.845
18.175
18.160
22.000
23.000
23.970
25.430
26.760
27.530
28.815
30.105
31.670
32.405
34.100
35.150
37.290
38.575
40.370
42.430
44.130
45.910
48.000
50.000
51.185
53.665
55.625
57.280
59.000
61.235
63.465
65.425
67.000
69.235
71.325
73.290
75.620
77.425
79.340
81.275
83.000
85.275
86.755
88.950
90.705
91.850
93.870
95.900
96.555
98.000
99.000
100.520
102.335
104.055
104.995
106.090
107.010
107.575
108.670
109.090
110.100
110.720
111.655
111.760
112.185
112.360
113.280
113.660
114.000
114.080
115.000
115.475
116.355
116.320
117.000
118.000
118.100
119.010
119.575
120.270
121.205
121.910
123.005
123.100
124.420
124.720
125.810
126.955
128.105
128.630
130.150
131.000
131.335
133.495
134.425
136.055
137.660
138.655
140.570
142.445
144.000
145.745
147.000
149.530
151.345
154.070
156.235
158.665
160.510
163.000
165.655
167.660
170.150
172.465
175.010
177.385
178.870
181.230
182.130
182.090
184.475
186.485
188.850
190.575
192.280
194.655
195.445
200.515
204.760
206.570
207.760
209.025
209.815
211.000
212.590
214.100
215.480
216.615
217.760
217.770
218.345
218.445
218.785
218.660
218.655
218.580
218.235
217.220
216.755
216.745
214.760
212.810
212.185
211.000
210.645
208.850
207.430
206.595
204.965
204.345
202.760
200.875
199.335
197.905
196.835
194.850
193.555
192.435
191.530
190.435
188.950
187.470
186.385
185.290
184.300
183.275
182.425
181.390
180.005
179.150
178.670
178.910
178.290
177.275
177.080
176.555
176.635
176.575
177.285
176.710
177.150
177.105
177.420
178.000
177.910
178.345
178.470
179.000
179.290
180.800
181.565
182.175
182.820
183.835
185.185
186.345
187.150
188.435
189.520
191.015
192.000
193.760
194.760
195.250
196.820
198.725
199.355
201.870
202.895
203.480
204.575
206.290
207.720
208.255
210.000
210.555
210.815
211.335
212.710
213.760
214.100
214.390
215.615
216.345
215.850
216.620
216.900
216.375
216.220
216.045
215.390
214.660
214.665
213.445
213.430
212.270
211.000
210.660
209.715
208.000
207.045
205.555
203.875
202.330
201.235
198.960
197.510
195.000
194.720
192.295
190.540
188.835
187.055
185.320
183.080
181.140
179.000
177.985
176.000
174.495
172.240
170.840
169.185
166.995
165.910
163.180
162.665
160.725
159.760
157.915
156.425
154.850
153.495
152.075
150.340
149.070
147.210
146.870
145.850
144.735
143.445
142.655
142.405
141.685
140.540
139.715
139.335
138.705
138.235
137.865
137.460
136.760
136.255
136.795
136.095
135.630
135.435
134.440
135.175
134.940
134.335
134.765
134.850
134.870
134.670
135.055
134.935
135.285
135.450
135.710
135.745
136.465
136.470
136.800
137.340
137.760
137.815
137.845
138.090
138.895
138.870
139.340
139.935
140.155
140.795
140.885
141.240
141.525
141.675
141.795
142.750
142.670
143.265
143.140
143.570
143.900
144.105
144.000
143.810
144.000
143.810
143.895
143.765
143.365
142.860
142.980
142.795
142.285
141.655
141.275
140.815
140.580
139.830
139.000
138.860
136.740
135.380
134.870
133.850
133.000
131.430
130.815
130.480
129.850
128.895
128.185
127.475
126.460
125.065
123.650
122.885
121.315
120.665
118.890
117.815
117.390
115.300
114.080
112.740
112.185
110.660
109.390
108.665
107.335
106.220
105.180
103.855
102.390
101.240
99.990
99.000
98.000
97.150
96.000
95.090
94.150
93.000
92.475
91.150
90.680
90.110
89.335
88.475
87.475
86.710
86.000
85.750
84.980
84.020
83.500
83.000
83.000
82.435
82.150
81.580
80.425
80.105
80.000
79.660
79.530
79.000
78.815
78.280
78.000
77.480
77.240
77.000
76.725
76.280
76.185
76.280
75.965
75.760
75.575
75.445
75.000
74.720
74.280
74.460
74.780
74.315
74.195
74.220
74.000
74.150
74.000
73.660
73.795
73.295
73.510
73.315
74.000
74.000
73.745
73.865
73.765
73.760
73.320
73.090
73.280
73.810
74.150
74.205
74.720
74.765
74.580
75.000
74.520
74.285
74.100
74.515
74.850
75.510
76.000
75.780
75.090
75.000
74.855
74.275
73.815
73.355
73.780
74.000
73.100
73.100
72.960
72.425
72.240
71.405
70.910
70.325
71.220
71.130
71.635
71.645
71.090
70.905
70.105
69.780
69.000
67.480
66.575
66.435
66.190
66.815
67.000
66.000
65.915
65.405
64.290
63.470
62.185
61.535
60.765
60.560
60.780
61.000
60.655
59.350
59.000
57.730
56.900
55.660
54.305
54.000
53.630
53.620
54.000
53.815
51.000
49.490
48.315
48.000
46.770
45.910
45.195
45.900
47.105
47.870
47.845
47.540
46.525
45.585
45.000
44.000
42.810
41.915
41.490
40.810
41.305
41.720
41.620
41.000
41.095
40.000
39.000
38.270
38.000
37.730
37.155
37.595
38.000
38.000
37.745
37.000
36.425
35.000
35.000
34.630
34.320
34.105
34.355
34.715
35.000
34.815
34.560
34.185
33.255
33.255
32.250
32.375
32.000
32.240
32.090
32.520
33.245
32.510
32.340
32.000
31.325
31.575
30.760
30.770
30.560
30.870
31.115
31.620
31.325
31.195
30.915
30.660
30.185
29.920
29.685
29.495
29.640
29.155
29.725
30.000
30.085
29.910
29.870
29.275
29.000
29.000
28.760
28.915
28.990
29.150
29.250
29.510
29.845
29.320
29.275
28.660
28.815
28.630
28.230
28.220
28.335
28.510
28.465
28.900
28.530
28.250
28.155
27.760
27.285
27.245
27.185
27.815
28.000
28.000
28.000
28.130
28.000
27.640
27.335
27.155
27.000
26.850
27.000
27.345
27.000
27.000
27.000
27.000
26.900
26.515
25.845
25.810
25.850
25.470
25.895
25.720
25.340
25.000
25.320
25.100
25.085
24.520
23.970
23.895
24.240
23.600
23.745
23.385
23.130
23.130
23.305
22.795
22.445
22.155
22.250
22.085
22.000
21.895
21.685
21.385
21.590
21.420
20.670
19.845
19.670
19.220
19.155
19.000
19.000
19.000
19.000
19.000
18.815
19.000
18.575
18.420
18.085
17.845
17.915
17.510
17.390
16.895
16.660
16.830
16.560
16.340
16.105
16.000
16.000
15.915
16.000
15.725
15.510
15.475
15.300
15.235
14.910
14.865
14.480
14.495
14.185
13.950
13.800
13.780
13.420
13.375
13.155
12.990
12.900
13.010
12.910
12.410
12.085
12.000
12.150
12.370
11.900
12.150
11.725
12.000
11.880
11.130
11.220
11.230
11.000
11.480
11.100
10.870
10.900
10.915
10.850
10.850
10.605
10.375
10.235
10.150
10.545
10.380
10.290
10.385
10.000
10.000
9.900
9.870
9.955
10.000
9.730
9.660
9.665
9.645
9.595
9.145
9.250
9.340
9.080
8.985
9.405
8.900
8.900
9.150
9.100
8.850
8.595
8.720
8.575
9.145
9.160
8.750
8.340
8.240
8.335
8.150
8.100
8.235
8.290
8.155
8.245
8.085
8.285
8.250
8.000
8.235
8.130
8.155
7.870
7.845
8.100
8.000
7.910
7.855
7.750
7.815
7.915
8.000
7.765
7.780
7.690
7.505
7.805
7.630
7.205
7.535
7.485
7.485
8.080
7.620
6.815
7.350
7.470
7.415
7.205
7.475
7.185
7.140
7.000
6.915
7.000
7.340
7.185
7.000
7.185
6.730
6.895
7.000
6.660
6.710
6.715
6.475
6.630
6.575
6.175
6.345
6.185
6.000
6.680
6.535
6.085
6.185
6.495
6.000
6.000
6.370
6.100
6.000
6.085
6.090
6.085
6.000
6.415
6.150
6.290
6.000
6.000
6.000
6.000
6.000
6.000
6.000
5.715
5.570
6.000
6.000
5.750
5.870
5.915
6.000
5.815
5.480
5.895
5.760
5.655
5.565
5.355
5.240
5.275
5.100
5.150
5.185
5.000
5.130
5.000
5.150
5.000
5.150
5.155
5.000
4.695
5.030
5.000
4.975
5.000
4.270
3.625
4.095
4.515
3.820
3.685
3.540
4.055
3.525
3.540
3.475
3.090
3.000
3.235
3.415
3.000
3.085
3.000
3.000
3.085
3.000
3.000
3.000
3.000
3.000
3.000
3.000
3.000
3.000
3.000
3.000
3.000
3.000
3.000
3.000
3.000
3.000
3.000
3.000
3.000
3.000
3.000
3.000
2.815
3.000
3.000
2.720
3.000
3.000
2.655
2.805
3.000
3.000
2.730
2.910
2.745
2.570
2.730
2.845
2.280
2.595
2.325
2.810
2.755
2.870
2.410
2.230
2.220
2.825
2.765
2.620
2.235
2.305
2.230
2.250
2.575
2.360
2.190
2.380
2.380
2.535
2.470
2.085
2.220
2.535
2.390
2.260
2.185
2.000
2.000
2.150
2.000
2.000
2.100
2.000
2.130
2.000
2.000
