I [a.u.]
30.510
31.705
32.555
34.150
35.350
37.345
38.625
40.710
42.625
44.805
46.960
48.000
50.685
51.940
54.865
57.490
59.445
61.185
64.000
65.820
67.790
70.000
72.810
74.380
76.820
79.020
80.785
82.920
85.100
86.995
89.240
91.080
92.900
95.115
96.295
98.170
99.000
101.090
102.150
103.535
105.330
106.440
107.295
108.705
109.330
110.530
111.395
112.150
112.990
113.660
114.090
114.625
115.000
115.000
115.145
115.385
115.190
115.860
116.810
117.330
117.855
118.145
118.285
118.240
118.950
119.860
120.330
121.055
121.775
122.480
123.045
124.130
124.705
125.630
126.510
127.295
128.245
129.335
130.250
131.000
132.430
134.000
135.095
137.055
138.430
140.195
141.625
143.155
144.585
146.365
147.490
150.000
152.160
154.085
156.530
159.145
160.580
162.900
165.295
168.225
171.000
173.870
176.295
179.095
181.905
185.090
187.985
190.330
193.115
195.000
198.000
201.150
203.160
205.415
206.190
205.660
207.760
209.335
210.485
211.560
214.000
215.340
215.660
220.005
223.625
224.480
224.655
225.170
225.970
225.325
226.245
226.750
226.025
226.185
225.530
225.270
224.240
223.705
223.055
221.375
220.140
219.195
217.685
216.225
214.675
212.805
210.565
208.290
207.170
205.830
204.000
202.005
200.625
198.100
197.220
196.270
195.090
193.525
192.755
191.470
190.040
188.860
188.150
186.705
186.130
185.440
184.040
183.200
182.090
182.020
181.185
181.320
180.245
179.690
179.400
179.285
179.000
179.145
179.045
179.000
178.610
178.680
179.000
179.470
180.050
180.325
181.275
181.995
183.960
185.855
186.755
187.510
188.540
189.185
191.010
191.850
193.025
194.245
195.245
196.870
198.370
200.165
201.535
202.920
204.875
206.385
207.970
209.380
210.340
211.530
212.575
214.315
215.285
216.895
218.535
219.290
219.705
221.245
222.860
223.670
223.805
224.390
224.815
224.905
224.990
225.040
224.895
224.925
225.020
224.335
223.760
223.190
221.905
221.000
220.330
219.185
217.735
216.695
214.920
213.155
211.670
210.490
209.095
207.185
205.575
203.335
201.555
199.140
197.435
194.955
193.825
192.000
189.655
187.940
186.220
183.965
181.600
179.330
178.050
176.000
174.090
172.190
170.705
168.850
166.960
165.285
163.000
162.335
161.000
159.905
158.070
156.705
155.190
154.000
152.855
151.295
150.090
148.840
147.390
146.920
146.025
145.150
143.920
143.610
142.975
142.180
141.565
140.905
140.825
140.140
140.100
139.340
139.000
139.090
138.955
138.615
138.655
138.585
138.435
138.775
138.265
138.755
138.855
138.845
139.000
139.495
138.980
139.075
140.000
140.530
140.185
141.000
141.390
141.750
142.240
142.340
142.580
143.295
143.515
143.850
144.090
144.530
144.580
144.995
145.755
146.000
146.190
146.565
146.855
147.000
147.250
147.145
147.825
147.540
147.855
147.940
148.445
149.040
148.920
148.775
148.700
148.565
149.340
148.380
147.385
147.000
147.000
146.755
146.355
145.480
144.510
144.380
144.000
143.095
142.380
141.485
140.295
139.660
138.275
137.530
136.905
134.440
133.195
131.565
130.825
129.535
128.290
127.750
126.000
125.560
124.995
123.920
122.770
121.525
120.280
118.585
117.680
115.290
114.850
113.900
112.425
111.830
110.030
108.850
107.815
106.910
105.410
104.090
102.725
101.800
101.090
99.000
98.760
97.820
96.510
96.000
94.830
94.100
92.995
91.805
91.080
90.665
89.920
89.225
88.235
87.615
86.475
86.000
85.755
84.985
84.605
83.000
83.000
83.000
82.580
82.185
81.855
81.805
80.850
80.680
80.235
80.000
80.000
79.670
79.430
78.705
78.490
77.860
78.000
77.810
77.910
77.770
77.195
77.430
77.090
77.195
76.900
76.725
76.530
76.570
76.610
76.680
76.425
76.090
76.150
75.920
75.920
76.000
75.440
75.560
75.560
75.680
75.680
76.000
75.670
75.775
75.760
75.515
75.610
75.335
75.145
75.675
75.765
76.000
76.710
76.285
76.430
76.660
76.760
76.760
76.510
76.920
76.855
77.145
77.480
77.520
77.330
77.000
77.000
76.485
76.705
76.390
76.340
76.050
76.195
75.710
75.390
75.320
74.855
73.325
73.295
72.660
72.385
71.850
71.835
71.855
71.430
72.185
71.330
70.435
70.000
69.660
69.000
68.120
67.590
67.000
67.000
67.000
66.290
65.760
64.705
64.000
63.580
62.535
61.765
61.145
60.855
60.330
59.990
59.420
58.855
57.845
57.195
56.100
55.535
54.570
54.090
53.610
53.195
53.145
52.500
51.145
50.905
50.225
49.535
48.000
46.465
45.235
45.240
44.330
43.855
43.855
44.145
44.985
44.570
43.920
43.920
42.900
42.510
42.080
41.585
40.725
40.480
40.000
39.430
39.000
38.420
37.855
38.000
37.805
37.095
37.235
37.240
37.560
37.000
36.615
36.185
35.000
35.000
35.000
34.855
34.525
34.225
34.000
34.240
34.090
34.150
33.815
33.340
33.150
32.440
32.175
32.000
32.080
32.000
32.000
32.150
32.000
32.000
32.000
32.000
31.285
31.230
30.860
31.000
31.095
31.080
30.910
31.080
30.920
30.855
30.600
30.750
30.295
30.080
29.995
29.825
29.675
29.920
29.900
30.275
30.000
30.000
29.875
29.625
29.295
29.145
29.145
28.855
29.340
29.195
29.150
29.340
29.470
29.365
29.535
29.240
29.395
28.850
29.000
28.770
28.795
29.000
29.000
29.000
29.000
28.685
28.430
28.465
28.080
27.705
28.000
27.760
27.920
27.805
28.240
28.440
28.235
28.195
27.610
27.685
27.490
27.750
27.145
27.000
27.290
27.100
26.920
27.000
27.000
26.510
26.100
26.000
25.855
26.000
26.000
25.320
25.150
25.195
24.805
24.855
25.060
24.485
24.240
24.195
23.605
23.795
23.465
23.150
23.150
23.000
22.660
22.675
22.180
22.000
22.000
21.920
22.000
21.900
21.325
21.000
20.995
20.815
20.390
20.180
19.440
19.000
19.100
19.000
19.000
19.000
18.760
18.905
18.570
18.240
18.150
17.805
17.965
17.825
17.380
17.150
16.805
16.410
16.290
16.090
16.180
16.000
16.000
16.000
16.000
16.000
15.530
15.100
14.900
14.850
14.760
14.910
14.725
14.525
14.000
14.000
13.560
13.520
13.585
13.340
13.000
13.100
13.000
12.905
12.805
12.575
12.580
12.145
12.090
12.150
12.145
11.775
11.430
11.755
11.430
11.665
11.565
11.000
11.345
11.000
11.000
10.950
10.910
10.905
10.855
10.570
10.605
10.440
10.195
10.340
10.345
10.175
10.150
10.000
9.920
10.000
10.230
9.865
9.910
9.705
9.730
9.430
9.630
9.195
9.375
9.525
9.100
9.170
9.150
9.000
9.000
8.920
8.880
8.660
9.080
8.945
8.535
8.565
8.390
8.670
8.520
8.470
8.490
8.490
8.165
8.275
8.225
8.375
8.055
8.000
8.000
7.950
8.000
8.095
7.920
7.825
7.710
7.755
7.765
7.850
7.660
7.565
7.430
7.710
7.570
7.805
7.610
7.485
7.235
7.460
6.760
7.245
7.465
7.615
7.680
7.320
7.245
7.290
7.350
7.090
7.000
7.170
7.000
7.045
6.930
7.100
6.825
6.895
6.920
6.755
7.195
6.900
6.750
6.810
6.705
6.170
6.610
6.910
6.430
6.170
6.575
6.410
6.485
6.425
6.520
6.435
6.275
6.340
6.245
6.150
6.195
6.000
6.000
6.000
6.365
6.000
6.095
6.080
6.000
6.000
6.000
6.090
6.000
6.000
6.000
6.000
5.805
6.000
6.000
6.000
5.910
6.000
5.660
5.755
5.820
6.000
5.725
5.755
5.760
5.000
5.675
5.820
5.635
5.565
5.385
5.435
5.170
5.390
5.290
5.195
5.235
5.000
5.170
5.000
4.690
4.710
5.000
4.710
5.000
4.425
4.760
4.515
4.510
3.980
4.110
4.150
4.125
4.270
3.935
3.935
3.740
3.235
3.000
3.485
3.760
3.685
3.325
3.160
3.000
3.145
3.000
3.000
3.000
3.000
3.000
3.000
3.000
3.000
3.000
3.000
3.000
3.000
3.000
3.000
3.000
3.000
3.000
3.000
3.000
2.855
3.000
3.000
3.000
3.000
2.905
3.000
3.000
3.000
2.855
2.850
3.000
3.000
2.855
2.755
2.705
2.725
2.900
2.855
2.660
2.570
2.480
2.290
2.510
2.660
2.390
2.340
2.470
2.000
2.285
2.630
2.590
2.250
2.145
2.000
2.080
2.410
2.240
2.000
2.235
2.100
2.175
2.225
2.145
2.080
2.000
2.195
2.225
2.145
2.240
2.340
2.000
2.080
2.000
2.020
2.340
2.230
2.000
2.000
2.000
1.905
2.000
2.000
2.000
2.080
1.920
2.000
2.000
1.855
2.000
30.895
31.930
33.485
34.675
35.265
37.825
39.075
41.180
43.145
44.930
47.350
49.565
50.910
53.330
55.555
57.485
59.955
62.970
64.535
66.330
69.110
71.270
73.585
75.760
78.010
79.910
82.000
84.000
86.335
88.590
90.475
92.090
94.130
96.110
98.095
99.390
101.575
102.435
104.175
105.735
106.855
107.985
108.855
110.000
111.025
112.015
112.495
113.770
114.790
114.680
115.285
116.540
117.230
117.300
117.840
117.655
117.840
118.010
118.235
119.050
119.440
119.495
120.380
120.555
121.100
121.860
122.140
122.895
123.200
124.320
124.905
125.465
126.355
127.380
128.000
128.825
129.975
131.000
132.050
133.145
134.290
135.850
137.410
139.005
140.570
141.725
143.610
144.860
146.605
148.130
150.050
152.480
154.560
156.595
158.735
160.590
162.715
165.250
167.865
170.665
173.365
176.345
179.000
181.500
184.635
187.285
190.375
192.845
195.070
198.000
200.955
203.595
206.485
208.570
208.625
208.290
210.485
211.145
213.425
214.950
216.910
218.315
218.950
223.590
226.810
227.215
227.290
227.715
227.890
227.715
228.220
229.420
228.270
228.000
227.905
227.305
227.090
226.640
225.890
224.305
223.550
222.065
220.415
219.020
217.855
215.995
213.905
211.000
209.520
208.355
206.550
204.985
202.925
201.515
200.145
199.420
198.000
196.285
194.820
193.680
192.865
191.590
190.360
189.120
188.500
187.270
186.710
185.825
185.075
184.560
184.130
183.455
183.140
182.450
182.165
182.000
181.885
181.700
182.145
181.680
180.800
180.730
180.840
182.000
182.465
182.620
183.675
184.810
186.695
187.925
188.915
189.790
190.635
191.765
192.550
194.145
195.000
196.190
198.000
199.395
201.480
202.975
204.210
205.790
207.750
208.505
210.300
211.250
212.735
214.290
215.725
217.675
217.965
219.645
220.595
221.685
222.740
224.090
224.990
225.615
226.655
227.000
227.000
227.000
227.155
227.285
227.000
227.145
227.000
226.730
226.005
225.420
224.355
224.025
223.195
222.105
220.815
219.075
217.840
216.190
214.250
213.305
210.910
209.790
208.140
205.660
203.595
201.875
199.670
197.755
195.385
193.905
191.695
189.910
188.350
186.000
183.240
181.545
179.230
177.860
176.005
174.215
172.305
170.730
169.105
166.905
165.790
163.585
162.640
160.660
159.715
158.410
157.050
155.640
154.140
152.925
151.910
150.515
149.390
147.785
147.000
146.575
145.750
145.370
143.945
143.855
143.520
142.415
142.105
141.385
141.585
140.900
140.745
140.645
140.485
139.985
139.955
139.840
140.025
139.745
139.950
140.145
140.105
140.545
140.445
140.670
140.905
141.100
141.500
141.375
141.595
141.970
142.435
142.840
143.020
143.575
144.145
144.000
144.575
145.465
145.790
145.730
146.000
146.730
146.840
147.000
147.475
147.680
148.615
148.515
149.540
149.200
149.700
149.975
149.785
150.110
150.070
150.145
150.240
150.145
150.145
150.280
150.000
149.750
148.755
149.220
148.705
147.785
147.000
146.565
146.000
145.655
144.850
144.145
143.710
142.940
141.790
140.945
140.270
138.955
137.905
136.360
134.385
133.340
131.000
130.480
129.625
128.390
127.665
126.760
126.015
124.930
123.465
122.715
121.445
119.910
118.235
117.375
116.150
114.890
113.855
112.645
111.165
109.935
108.945
107.465
106.500
105.375
103.750
102.165
101.930
100.710
99.000
98.515
97.650
96.210
95.860
94.820
93.985
93.145
92.055
91.300
90.475
89.985
89.055
88.220
87.660
86.630
86.290
85.695
85.250
84.530
84.100
83.670
83.000
82.760
82.315
82.250
81.840
81.440
81.045
80.210
80.245
80.000
80.000
79.700
79.500
79.195
78.800
78.160
78.520
78.340
78.300
77.785
77.980
77.570
77.090
77.435
77.240
77.210
77.060
77.245
77.285
76.735
76.715
76.090
76.540
76.235
76.120
76.070
76.000
76.390
76.090
76.215
76.290
76.360
76.390
76.185
75.675
76.000
76.090
76.435
76.745
76.985
77.155
77.070
77.095
77.050
77.855
77.145
77.185
77.330
77.595
78.105
78.145
77.905
78.070
77.670
77.530
77.145
77.040
76.745
76.735
76.775
76.665
76.665
76.125
75.825
75.145
73.930
73.600
73.285
72.660
72.360
72.355
72.450
72.240
72.495
72.125
71.230
70.375
69.930
69.395
68.710
67.940
67.290
67.280
67.000
66.700
65.840
65.470
64.315
63.840
63.070
62.090
61.715
61.195
61.000
60.095
60.140
59.095
58.265
57.320
56.895
56.320
54.715
54.160
54.000
53.380
53.190
53.005
51.960
51.285
50.665
49.910
48.240
46.720
45.640
44.855
44.735
44.145
44.310
44.570
44.960
45.070
44.485
43.840
43.070
42.700
42.070
41.565
41.260
41.000
40.520
39.800
39.230
38.620
38.000
38.000
38.140
37.910
37.265
37.805
37.500
37.320
36.800
36.255
35.230
35.000
35.000
34.910
34.555
34.165
34.300
34.325
34.145
34.290
33.765
33.575
33.520
32.770
32.450
32.475
32.325
32.095
32.090
32.000
32.090
32.015
32.105
31.785
31.680
31.550
31.340
31.000
31.345
30.765
30.800
31.055
31.405
31.000
31.000
30.910
30.460
29.985
29.975
29.855
30.000
29.905
30.040
30.145
30.140
30.105
29.985
29.710
29.580
29.355
29.105
29.000
29.105
29.570
29.515
29.760
29.345
29.560
29.680
29.445
29.255
28.750
29.240
28.880
28.620
29.370
29.215
28.855
29.145
28.775
28.605
28.415
28.360
27.785
27.395
27.710
28.000
28.470
27.855
28.110
28.340
27.930
28.145
27.535
27.745
27.290
27.210
27.585
27.500
27.160
26.855
27.000
26.760
27.000
26.305
26.145
25.910
26.000
25.805
25.395
25.175
24.955
25.140
24.860
25.200
24.605
24.560
24.135
24.000
23.625
23.645
23.490
23.245
23.195
23.125
22.600
22.585
22.095
22.000
22.000
22.000
22.000
21.855
21.175
20.625
20.630
19.850
20.230
19.640
19.015
19.000
19.000
19.000
19.000
18.710
18.665
18.525
18.215
17.870
18.000
17.910
17.835
17.525
16.890
16.555
16.305
16.450
16.465
16.000
16.000
16.000
16.000
15.715
15.665
16.000
15.335
15.155
15.075
14.535
14.700
14.765
14.745
13.985
14.140
13.715
13.425
13.565
13.375
13.340
13.000
13.195
13.000
12.855
12.670
12.410
12.000
12.145
12.000
12.090
12.245
11.815
11.910
11.290
11.320
11.390
11.015
11.315
11.000
11.000
10.855
11.000
11.000
10.685
10.715
10.240
10.240
10.000
10.215
10.145
10.185
10.095
10.195
9.910
9.855
9.985
10.000
9.700
9.825
9.410
9.500
9.395
9.175
9.695
9.070
9.245
9.340
8.985
8.715
9.105
9.000
8.725
9.000
8.805
8.805
8.475
8.700
8.550
8.585
8.485
8.250
8.425
8.685
8.380
8.335
8.105
8.090
8.070
8.085
8.240
8.140
8.000
8.090
8.000
7.910
7.760
7.765
7.685
7.790
7.860
7.710
7.840
7.860
7.710
7.485
7.585
7.445
7.640
7.440
7.425
7.345
7.145
7.305
7.210
7.315
7.155
7.195
7.195
7.095
7.230
7.070
7.000
7.000
6.855
6.860
7.095
6.780
7.050
6.760
6.800
6.750
6.770
6.910
6.630
6.535
6.515
6.660
6.500
6.435
6.590
6.530
6.665
6.330
6.440
6.140
6.160
6.450
6.185
6.095
6.000
6.000
6.000
6.145
6.000
6.270
6.000
6.000
6.195
6.000
6.005
6.000
6.000
6.095
6.000
6.095
6.000
5.815
6.000
5.855
5.930
5.910
5.860
5.675
5.840
5.520
5.665
5.500
5.660
5.800
5.575
5.410
5.645
5.625
5.305
5.340
5.000
5.175
5.140
5.215
5.380
5.145
4.715
4.930
4.880
4.420
4.970
4.415
4.380
4.855
4.355
4.145
3.985
3.975
3.600
3.835
4.365
3.740
3.805
4.175
3.540
3.775
3.540
3.485
3.095
3.300
3.120
3.590
3.145
3.140
3.000
3.070
3.145
3.210
3.000
3.000
3.095
3.290
3.145
3.000
3.290
3.000
3.000
2.855
2.855
3.000
3.000
2.855
3.000
3.000
3.000
2.855
3.000
2.910
2.855
2.985
3.000
2.890
2.805
2.765
2.855
2.745
2.590
2.800
2.590
2.735
2.910
2.520
2.335
2.565
2.690
2.470
2.755
2.410
2.320
2.470
2.480
2.505
2.325
2.515
2.430
2.320
2.160
1.945
2.160
2.300
2.145
2.095
1.960
2.145
2.215
2.250
2.000
2.000
2.140
2.195
2.000
2.015
2.000
2.195
2.535
2.195
2.000
1.805
2.195
2.125
1.805
2.000
1.905
2.000
2.000
2.000
1.985
1.910
1.895
1.640
2.015
2.000
1.765
