I [a.u.]
4.630
4.540
4.255
4.525
4.900
4.800
4.915
5.000
5.085
4.915
5.085
5.000
4.915
5.085
5.085
5.070
5.480
5.765
6.140
5.820
6.585
6.505
6.200
6.435
7.195
6.930
7.305
7.350
7.160
7.560
7.740
7.830
7.565
8.060
8.165
8.550
8.475
8.820
8.595
9.005
9.450
9.895
10.400
10.170
10.860
11.085
11.890
12.620
12.570
13.245
13.625
14.435
15.335
16.375
16.940
17.860
18.525
19.195
20.100
20.690
20.990
22.060
23.015
23.715
24.355
24.475
25.075
25.810
27.185
27.180
27.630
28.265
28.880
28.905
29.640
29.650
30.390
30.800
30.635
31.120
31.800
31.910
32.140
32.715
33.260
33.370
33.545
33.980
34.075
34.915
35.255
35.720
36.050
36.195
36.630
37.120
38.565
38.975
39.360
39.820
40.860
41.420
42.440
43.315
44.150
45.060
45.805
46.805
47.370
48.340
48.890
49.690
50.715
51.780
52.005
52.005
52.410
52.715
54.565
54.970
55.480
56.130
57.425
58.500
59.640
60.265
60.715
61.580
62.345
62.625
63.300
63.715
64.380
64.975
65.100
65.385
65.585
65.870
66.245
66.470
66.340
66.395
66.765
66.870
66.870
66.800
66.995
66.120
66.120
65.870
66.000
65.685
65.635
65.170
65.495
65.545
65.335
64.975
64.370
64.205
63.670
63.400
63.185
63.005
62.070
61.755
61.870
61.460
61.170
60.630
60.265
59.850
59.865
59.715
59.540
59.065
58.795
58.790
58.535
58.460
58.140
57.140
57.615
57.315
57.610
57.545
57.600
58.060
58.345
58.635
58.705
58.860
59.140
59.340
59.350
59.545
59.880
60.380
60.260
60.635
60.975
61.295
61.660
62.315
62.460
62.910
63.210
63.715
63.700
64.235
64.795
65.180
65.575
65.760
66.070
66.670
67.010
67.400
67.385
67.705
68.200
68.275
69.330
69.150
68.820
69.240
69.225
69.905
70.200
69.760
69.480
70.070
70.040
70.100
69.670
69.420
69.075
69.600
69.175
68.745
68.435
68.170
67.880
67.710
67.030
66.710
65.955
65.755
65.290
64.585
63.865
63.400
62.760
62.160
61.705
60.945
60.160
59.665
59.310
58.635
57.990
57.210
56.620
55.750
55.180
55.100
54.105
53.700
52.605
52.355
51.975
51.345
50.810
49.980
49.970
48.980
48.710
47.795
47.480
46.775
46.235
45.610
45.350
44.505
43.790
43.825
43.200
42.570
42.235
41.850
41.420
41.255
40.870
40.400
39.600
39.350
39.270
39.250
38.990
38.160
37.875
37.375
37.370
37.230
36.960
36.710
36.545
36.445
36.075
35.965
35.890
35.255
35.520
35.285
35.135
35.275
34.925
34.320
33.970
34.215
33.790
33.545
33.545
33.085
33.295
33.005
32.710
32.540
32.455
32.230
31.955
31.490
31.540
31.445
30.915
30.610
30.320
30.370
30.080
30.090
29.455
28.875
28.835
28.825
28.595
28.335
27.320
26.920
26.565
26.450
25.735
25.870
25.435
24.825
24.615
23.705
23.480
23.190
22.715
22.165
21.955
21.400
20.980
20.605
20.365
20.050
19.555
18.975
18.535
18.350
18.140
17.810
17.595
16.805
16.820
16.190
15.895
15.225
14.890
14.620
14.110
13.910
13.430
13.085
12.735
12.560
12.240
12.080
11.695
11.365
10.980
10.725
10.315
9.950
9.290
9.165
9.410
9.010
8.650
8.000
8.085
8.085
7.700
7.820
7.620
7.455
7.410
6.905
6.895
6.210
6.820
6.335
5.630
5.300
5.260
5.520
5.290
4.915
5.000
5.325
5.170
4.745
5.000
5.000
4.905
4.735
4.615
4.620
4.245
4.620
4.650
4.350
4.090
4.305
4.175
4.000
4.085
4.115
3.805
4.015
3.715
4.000
4.000
3.580
3.525
3.910
3.790
3.625
3.575
3.610
3.325
3.475
3.315
3.660
3.410
3.325
3.205
3.245
3.120
3.195
3.030
3.155
3.440
3.095
2.960
2.970
2.785
3.245
3.210
3.105
2.855
3.295
2.845
2.550
2.890
3.020
2.590
2.800
2.675
3.205
2.680
2.795
2.695
2.490
2.555
2.530
2.715
2.595
2.495
2.810
2.425
2.410
2.515
2.640
2.200
2.260
2.500
2.170
2.410
2.570
2.390
2.170
2.495
2.080
2.080
2.405
2.210
2.320
2.405
2.070
2.085
2.545
2.260
2.155
2.000
2.170
2.170
2.010
2.000
2.195
2.160
2.170
2.180
2.090
2.000
2.070
2.000
1.990
2.000
2.000
2.000
1.925
2.010
2.000
2.000
2.000
2.000
2.080
1.990
1.930
1.920
2.080
2.170
2.000
1.900
2.000
1.895
1.930
2.000
2.000
1.830
2.000
2.000
2.000
2.070
2.000
2.000
2.000
1.920
1.825
2.000
2.060
2.000
1.930
1.920
1.990
2.000
2.070
1.995
2.000
1.885
2.000
2.000
2.000
2.000
1.885
1.930
2.000
1.995
2.080
1.800
2.000
1.825
1.885
1.885
1.885
1.920
2.115
2.000
1.910
2.000
2.000
2.010
2.000
1.620
2.090
2.105
1.795
1.910
1.805
2.000
2.000
2.000
1.910
2.000
2.000
1.910
1.875
2.000
2.080
2.080
1.885
1.885
2.035
2.000
1.885
2.195
2.000
2.000
2.000
2.115
2.000
1.845
1.965
1.920
2.070
1.795
1.920
2.050
1.930
2.115
1.875
1.830
2.115
1.765
1.915
2.080
2.070
2.000
2.000
1.930
1.990
1.875
2.000
2.000
1.920
2.000
2.070
1.955
2.000
2.035
1.885
2.090
2.025
2.000
1.910
1.750
1.885
2.000
1.900
2.115
2.115
2.120
2.000
1.990
2.000
2.000
1.990
2.120
2.000
2.000
1.910
2.000
2.110
2.000
2.075
2.000
2.000
2.000
2.115
2.000
2.075
2.000
2.000
1.915
2.000
2.115
1.970
2.000
2.020
2.080
2.135
2.060
2.000
2.115
2.080
1.885
1.920
1.920
2.000
1.915
1.885
2.000
2.000
1.995
1.915
2.000
2.050
1.915
2.000
1.990
2.000
1.990
2.085
2.010
2.000
2.000
1.990
1.710
2.000
2.000
2.000
2.000
2.000
2.000
2.000
1.930
1.990
2.000
2.000
1.825
2.010
2.000
1.990
2.000
1.885
1.590
2.000
2.000
2.000
2.090
1.655
2.010
1.815
2.000
2.000
1.715
1.815
1.915
2.000
1.930
1.830
1.920
2.000
1.760
2.165
2.000
1.915
1.655
1.920
1.920
1.920
1.915
1.830
2.000
2.010
1.830
2.125
2.000
2.000
1.990
1.915
1.825
2.010
2.175
1.830
1.990
2.000
1.825
2.165
1.990
1.790
2.000
1.885
2.000
2.080
1.830
1.920
1.710
1.825
2.000
1.800
1.830
1.830
1.920
1.910
1.880
1.835
1.740
1.830
1.830
2.000
2.000
2.000
2.000
2.000
2.000
2.090
2.030
2.000
1.915
2.000
2.000
2.000
2.000
2.000
1.910
2.000
2.000
1.830
2.000
2.125
2.170
2.040
2.000
2.110
1.995
1.965
2.175
2.075
1.920
2.085
1.995
2.000
2.000
2.090
2.080
2.170
2.080
2.080
2.175
2.110
2.120
1.995
2.090
2.360
2.235
1.930
2.175
2.130
2.090
2.210
2.000
2.000
2.000
2.170
2.090
2.085
2.085
2.085
2.080
2.080
2.165
2.000
2.170
2.005
2.105
2.170
2.240
2.070
2.330
2.175
2.170
2.070
2.245
2.000
2.175
2.000
2.085
2.085
2.140
2.000
2.185
2.085
2.085
2.000
2.245
2.260
2.260
2.000
2.170
2.115
2.245
2.430
2.000
2.085
2.000
2.245
2.330
2.085
2.330
2.000
2.000
2.415
2.185
2.000
2.090
2.085
2.340
2.245
2.000
1.930
2.000
2.000
2.260
2.255
2.000
2.000
2.085
2.175
2.000
2.175
2.070
2.090
2.000
1.980
2.245
2.070
2.170
2.090
1.830
2.085
2.175
2.000
2.000
1.830
2.175
2.070
2.000
1.825
2.070
2.000
2.170
1.740
2.000
2.005
2.345
2.000
2.000
2.000
2.075
2.220
2.175
2.020
1.830
1.885
2.000
2.000
1.905
2.115
2.175
2.000
1.940
1.825
2.000
2.000
2.000
1.910
2.000
2.000
2.000
2.000
2.000
1.915
1.885
2.000
2.000
1.825
1.915
2.070
2.085
1.825
1.920
1.930
1.735
1.955
1.830
2.115
2.085
1.750
1.680
2.105
2.060
1.755
1.555
1.375
1.880
2.115
1.465
1.830
1.920
2.085
1.700
1.425
2.105
2.000
1.740
1.615
1.920
1.795
2.120
1.825
1.740
1.740
1.795
1.910
2.000
1.705
1.350
1.830
1.735
1.920
1.695
1.450
