I [a.u.]
7.830
7.660
7.610
8.000
8.270
8.585
8.545
8.630
8.420
8.655
9.115
9.675
9.750
10.325
9.910
10.190
10.595
11.030
11.060
11.530
11.225
11.665
12.060
12.170
12.480
12.630
12.960
13.005
13.270
13.385
13.990
13.980
14.275
15.085
15.135
15.520
15.750
16.335
16.875
17.650
17.715
17.970
18.665
19.685
20.170
21.000
21.440
22.645
23.790
24.990
25.575
27.285
28.300
29.715
30.970
31.965
33.300
33.940
35.580
36.455
36.970
38.315
39.400
40.400
41.085
42.235
43.165
43.910
44.475
45.270
45.715
46.540
47.350
47.695
48.650
48.860
49.505
49.625
49.815
50.235
50.915
51.470
51.665
51.910
52.505
52.980
53.230
53.895
54.645
55.130
55.700
56.820
57.265
58.155
58.895
59.895
61.105
61.760
62.875
63.810
64.955
66.185
67.375
68.205
69.480
70.645
71.480
73.055
74.345
75.790
76.290
77.760
78.805
80.435
81.040
81.045
81.400
82.440
83.590
84.180
85.410
86.455
86.670
88.340
90.845
91.450
92.465
93.005
93.650
94.135
94.570
95.595
96.070
96.460
96.960
96.700
96.955
97.495
97.450
97.800
97.735
97.720
97.550
97.480
97.615
97.470
96.690
95.700
95.725
95.585
95.080
94.440
94.040
93.565
93.280
92.950
92.855
91.980
91.670
91.025
90.665
89.450
88.910
88.285
88.285
87.350
86.930
86.280
85.645
85.135
84.585
84.160
84.165
83.730
83.520
82.585
82.525
82.585
82.250
81.855
81.415
80.730
80.670
80.395
80.835
80.725
80.690
81.010
81.320
81.840
82.100
82.065
82.315
82.695
82.920
82.770
83.280
83.855
84.065
84.300
84.695
85.035
85.770
86.605
86.800
87.265
87.815
88.810
89.030
89.940
90.305
90.765
91.190
91.935
92.410
93.120
93.310
93.710
94.135
95.065
95.630
95.630
96.475
96.405
96.910
96.915
97.080
97.770
98.125
97.755
98.000
98.110
98.095
98.270
98.220
97.665
98.010
97.470
97.170
97.165
96.705
96.565
96.055
95.405
95.170
93.920
93.515
93.165
92.485
92.290
91.435
90.285
89.935
89.075
88.515
87.870
87.220
86.245
85.535
84.945
84.220
83.440
82.785
82.125
81.610
81.165
80.685
80.025
79.475
78.660
77.715
77.290
76.795
75.925
75.440
75.035
74.075
73.290
72.625
72.165
71.840
71.220
71.095
69.995
69.440
69.040
69.000
68.540
68.610
68.220
68.035
67.715
67.460
67.075
67.070
66.485
66.620
66.435
66.315
66.220
66.095
66.095
66.050
66.095
66.220
66.125
66.070
65.910
66.125
66.400
66.135
66.295
66.220
66.650
66.315
66.790
66.885
66.845
67.070
66.730
67.165
68.030
68.025
67.965
67.910
68.090
68.065
68.620
68.695
68.855
69.160
69.135
69.250
69.260
69.190
69.440
69.510
70.240
70.590
69.985
70.785
71.115
71.070
70.925
71.125
70.840
70.890
70.360
70.200
70.030
69.930
70.145
69.630
69.800
69.125
69.000
68.780
68.715
68.600
68.040
67.890
67.285
66.380
65.765
65.595
65.045
64.510
64.015
63.870
63.540
63.505
62.905
62.165
62.040
61.500
61.165
59.945
59.550
59.415
58.530
58.070
56.935
56.445
55.855
55.780
55.220
54.195
53.190
52.855
52.560
52.000
51.600
51.225
50.630
49.945
49.610
48.870
48.005
47.875
47.425
46.965
46.180
45.650
45.320
45.090
44.535
44.230
43.790
43.255
42.950
42.800
42.700
42.220
42.085
41.240
40.875
41.005
40.650
40.280
40.040
39.820
39.855
39.455
39.850
39.440
38.690
38.600
37.945
38.720
38.150
37.820
37.170
37.125
37.440
37.000
37.380
37.130
37.000
36.910
36.945
37.000
37.000
36.680
36.520
36.545
36.165
36.775
36.300
36.410
36.435
36.305
36.315
36.220
35.970
36.225
36.220
36.035
36.125
36.005
36.220
36.435
36.225
36.100
36.250
36.095
36.490
36.780
36.605
36.845
36.775
36.720
36.610
37.000
36.855
36.905
37.000
37.000
37.000
37.000
36.855
37.000
37.000
36.910
36.945
36.710
36.450
36.650
36.570
36.265
36.465
36.040
35.905
35.910
36.015
36.075
35.950
35.265
35.100
35.335
35.260
35.010
34.980
34.710
34.190
34.345
34.215
33.855
33.730
33.520
33.205
33.065
33.180
32.135
32.285
32.000
31.250
31.430
30.675
30.470
30.525
30.255
29.775
29.535
29.040
28.860
28.545
28.325
28.010
27.855
27.875
27.140
26.950
26.450
26.195
25.920
25.125
24.550
23.945
24.000
23.620
23.300
23.115
22.990
23.370
23.255
23.035
22.300
22.540
21.565
21.560
21.430
20.925
20.815
20.945
20.670
20.635
20.555
20.170
20.250
20.225
20.175
19.455
20.085
20.040
19.565
18.945
19.210
18.905
18.840
18.470
18.650
18.500
18.540
18.275
17.905
18.000
17.910
17.910
17.720
17.870
17.795
17.030
17.590
17.275
17.245
17.440
16.870
16.875
16.910
17.350
16.860
16.870
16.745
16.505
16.535
16.590
16.345
16.225
16.205
16.150
16.040
16.105
16.155
15.970
16.055
15.820
15.840
15.740
15.820
16.005
15.720
15.580
15.810
15.525
15.740
15.645
15.750
16.025
15.575
15.610
15.785
15.630
15.410
15.380
15.125
15.525
15.600
15.485
15.350
15.255
15.165
15.335
15.505
14.820
15.305
15.375
15.180
15.000
14.730
15.000
15.125
14.945
14.870
14.830
14.855
14.785
14.760
14.600
14.630
14.875
15.070
14.820
14.530
14.495
14.655
14.465
14.555
14.225
14.225
14.425
14.525
14.305
14.075
14.005
14.000
13.905
13.560
13.815
13.635
13.525
13.730
13.580
13.460
13.225
13.055
13.070
13.350
12.980
12.725
12.780
12.785
13.005
12.720
12.475
12.630
12.380
12.575
12.420
12.370
12.000
11.910
12.000
11.910
11.915
11.775
11.285
11.705
11.405
11.575
11.350
10.540
10.910
11.095
10.410
10.665
9.945
10.360
10.310
10.180
9.785
9.460
9.715
9.830
9.125
9.635
9.000
9.180
8.805
8.855
8.775
8.710
8.465
8.200
8.155
8.000
8.075
8.180
8.000
8.000
8.000
7.915
7.910
7.910
7.845
7.765
7.870
7.475
7.395
7.550
7.545
7.370
7.270
7.215
7.095
7.110
7.210
7.270
6.715
6.925
6.800
6.645
6.710
6.520
6.365
6.755
6.275
6.110
5.780
5.890
6.160
5.570
5.645
5.895
5.640
5.700
5.565
5.455
5.090
5.580
5.125
5.250
5.155
5.155
5.000
5.220
5.000
5.000
5.000
5.000
5.090
5.155
5.125
5.000
5.000
5.000
5.000
5.155
5.000
5.000
4.875
5.000
5.000
5.000
5.000
5.000
5.000
5.250
5.000
5.000
4.905
5.125
5.000
4.930
4.945
4.945
4.945
5.000
4.875
4.945
5.000
5.000
4.905
4.750
4.695
5.000
4.855
4.905
4.945
4.750
4.820
4.945
4.870
4.660
4.905
4.815
4.600
4.600
4.720
4.945
4.905
4.945
4.520
4.690
4.770
4.605
4.675
4.575
4.380
4.775
4.830
4.700
4.480
4.905
4.535
4.690
4.745
4.305
4.385
4.875
4.465
4.470
4.650
4.710
4.530
4.290
4.365
4.165
4.270
4.000
4.505
4.390
4.155
4.395
4.415
4.405
4.130
4.395
4.095
4.240
4.150
4.130
4.185
4.340
4.000
4.215
4.125
4.095
4.075
4.310
4.310
4.245
4.155
4.130
4.205
4.260
4.220
4.415
3.945
3.910
4.055
4.275
4.000
3.910
3.950
3.770
4.055
4.000
3.945
4.000
3.945
4.000
3.925
4.000
3.945
4.000
4.000
3.665
3.685
3.705
3.745
3.695
4.000
3.790
3.555
3.685
3.585
3.535
3.945
3.320
3.355
3.225
3.630
3.630
3.335
3.515
3.210
3.095
3.680
3.870
3.125
2.965
3.285
3.170
3.270
3.090
3.130
3.390
3.245
3.160
3.130
3.000
2.845
2.560
3.055
2.615
2.845
3.000
2.480
2.545
2.775
2.780
2.595
2.830
2.725
2.600
2.790
2.905
2.385
2.285
2.685
2.650
2.090
2.650
2.350
2.410
2.660
2.500
2.365
2.335
2.155
2.325
2.450
2.400
2.190
2.245
2.425
2.410
2.165
2.055
2.000
2.250
2.250
2.285
2.155
2.235
2.170
2.125
2.200
2.155
2.465
2.275
2.095
2.000
2.155
2.000
2.155
2.360
2.000
2.130
2.155
2.000
2.000
2.000
2.000
2.000
2.000
2.000
2.155
2.305
2.075
2.000
2.000
2.000
2.155
2.255
2.000
1.820
2.000
2.000
2.000
2.000
2.000
2.000
2.000
