I [a.u.]
5.965
5.540
5.560
5.930
6.895
6.610
7.080
7.700
7.395
8.000
8.240
8.200
8.860
9.120
9.455
10.150
10.640
11.030
11.455
11.860
12.085
12.560
12.940
13.580
13.920
14.160
14.780
15.080
15.475
16.205
16.675
17.060
17.515
18.000
18.080
18.420
18.785
19.000
19.335
20.000
20.255
20.805
20.740
20.675
20.940
20.835
21.000
21.405
21.325
21.165
21.105
21.560
21.760
21.565
21.250
21.225
21.025
21.060
21.000
21.000
21.000
21.000
20.940
20.880
20.835
21.000
20.840
20.760
20.895
20.940
20.895
21.000
21.105
20.940
21.080
21.675
21.950
22.955
23.465
23.835
24.145
24.205
24.390
25.035
25.390
25.350
25.780
26.545
26.745
26.840
27.455
28.025
28.030
28.670
28.990
29.290
30.090
30.635
31.160
31.280
32.405
32.775
33.370
33.940
34.080
35.080
35.690
36.000
36.375
37.000
37.000
37.470
38.425
39.160
39.475
39.940
40.020
40.300
40.080
40.615
41.030
41.070
41.270
42.610
43.625
44.000
44.200
44.020
44.420
44.530
44.690
45.305
45.225
45.240
45.100
45.405
45.370
45.280
45.185
45.140
45.020
45.340
44.685
44.600
44.435
44.455
44.080
43.780
43.265
43.325
42.790
42.295
41.880
41.920
41.405
41.100
41.400
41.115
40.850
40.385
40.000
39.940
39.940
39.680
39.200
39.420
39.525
38.860
38.560
38.420
38.230
37.935
37.585
37.025
37.220
37.080
37.025
37.000
37.080
37.160
37.000
37.000
37.000
36.940
36.920
37.000
37.020
37.000
37.165
37.635
38.170
38.635
37.780
38.630
38.940
39.020
39.360
39.580
39.695
39.860
39.910
40.385
40.585
40.555
41.220
41.360
41.800
41.830
42.020
42.345
43.100
43.160
43.440
43.540
43.600
44.025
44.325
44.100
44.685
44.915
44.860
45.160
45.555
45.530
45.265
45.880
46.100
45.745
46.090
46.210
46.405
46.405
46.205
46.175
46.220
46.270
45.995
45.915
46.030
45.805
45.485
45.385
45.390
45.000
44.850
44.495
44.160
44.385
43.880
43.495
43.160
42.640
42.630
41.910
41.930
41.430
40.900
40.615
40.105
39.910
39.680
39.170
38.885
38.720
37.915
37.080
37.160
37.000
36.940
36.405
36.240
36.000
35.835
35.860
35.680
35.020
34.910
34.425
34.000
34.020
34.080
33.860
33.690
33.690
33.105
33.020
33.070
32.865
32.600
32.320
32.160
32.345
32.445
32.055
31.740
31.630
31.605
31.975
31.940
31.740
31.380
31.980
31.945
32.020
32.105
31.860
31.745
31.940
31.820
31.785
32.205
32.565
32.180
32.105
32.230
32.720
32.625
32.580
32.845
33.060
32.795
33.155
33.345
33.365
33.440
33.605
33.940
33.710
33.660
33.940
34.140
34.000
34.160
34.080
33.965
33.990
34.560
34.250
34.115
34.115
34.275
34.705
34.200
34.000
34.140
34.140
34.465
34.000
34.000
34.000
33.880
33.655
33.860
33.595
33.615
33.195
33.300
33.220
33.055
32.870
32.710
32.265
32.000
31.525
31.480
31.260
30.920
30.900
30.300
30.395
30.635
30.395
30.295
29.815
29.770
29.620
29.365
29.170
28.960
28.920
28.480
28.205
28.000
27.645
27.570
27.530
27.100
26.410
26.165
26.325
25.610
25.780
25.415
25.260
24.750
24.740
24.420
24.120
24.070
23.960
23.700
23.530
23.500
22.345
23.040
22.880
22.350
22.110
21.905
21.485
21.300
21.425
21.250
21.025
21.140
21.000
21.080
21.240
21.000
21.000
21.000
20.725
20.940
20.600
20.680
20.565
20.600
20.220
20.520
20.355
20.245
20.410
20.460
20.120
20.390
20.250
20.265
19.945
20.230
20.325
20.515
20.265
20.185
20.320
20.130
20.185
20.025
20.185
20.240
19.840
19.965
20.185
20.325
20.185
19.930
20.390
20.495
20.325
20.495
20.345
20.060
20.455
20.695
20.475
20.390
20.525
20.245
20.915
21.000
20.750
20.605
20.790
20.835
20.940
20.800
20.830
21.000
21.105
21.000
20.920
21.000
21.000
20.835
21.000
21.170
21.000
21.000
21.080
21.000
21.000
21.000
20.880
20.860
20.710
20.920
20.800
20.630
20.880
20.920
20.630
20.650
20.515
20.170
20.200
20.170
20.345
20.340
20.000
19.760
19.830
19.660
19.465
18.605
18.965
19.245
19.305
18.780
18.430
18.250
18.265
18.185
18.000
18.025
17.940
17.475
17.920
17.690
17.380
17.020
16.855
16.915
17.005
16.860
16.205
16.080
15.775
15.585
15.770
15.130
14.775
14.465
14.030
14.195
14.805
15.080
14.780
14.445
14.750
14.385
14.510
14.615
14.350
14.080
13.560
13.265
13.200
13.340
12.920
13.720
13.300
13.170
12.835
13.000
13.140
13.165
12.755
13.165
12.720
12.715
12.855
12.780
12.305
12.910
12.345
12.215
12.595
12.705
12.250
12.435
12.205
11.920
12.665
12.080
11.975
11.695
11.695
11.780
12.070
12.200
11.780
11.275
11.700
11.715
11.835
12.010
11.860
11.780
11.680
11.700
11.955
11.820
11.940
11.375
11.835
11.755
11.525
11.820
11.780
11.755
11.545
11.415
11.515
11.720
12.090
11.775
11.505
11.485
11.755
11.760
11.920
11.605
11.745
11.430
11.860
11.815
12.010
11.710
11.755
11.940
11.920
11.820
11.775
11.745
12.000
11.860
12.165
12.105
11.755
11.465
12.120
12.150
12.060
11.920
11.335
11.335
11.535
11.940
11.710
12.030
11.700
11.700
11.710
12.055
11.840
11.755
11.555
11.860
12.035
11.920
11.675
11.640
11.555
11.255
11.745
11.180
11.345
11.465
11.510
11.205
11.090
11.290
11.265
11.140
11.105
10.960
11.000
11.095
10.720
11.160
10.880
10.655
10.855
10.900
10.630
10.485
10.800
10.265
10.535
10.350
10.225
10.135
10.365
9.495
10.060
10.265
9.725
9.855
10.105
10.000
9.905
9.375
9.190
9.080
9.335
9.185
9.000
9.040
8.805
8.740
8.465
8.165
8.255
8.635
8.755
8.665
8.000
8.140
8.170
8.080
8.080
8.220
8.000
8.000
7.860
7.840
7.910
8.020
7.700
7.740
7.615
7.415
7.705
7.940
7.700
7.080
7.070
7.035
7.420
7.520
6.780
6.810
7.550
7.035
6.725
6.580
7.060
6.555
7.245
6.860
6.925
6.550
6.185
6.815
6.635
6.715
6.510
5.920
6.100
6.225
5.570
6.015
5.360
5.800
6.315
5.700
5.280
5.505
5.360
6.335
5.900
5.160
5.640
5.620
5.500
5.300
5.525
5.560
5.500
5.480
5.260
5.260
5.000
5.400
5.340
5.250
5.000
5.090
5.000
5.345
5.240
5.000
5.080
5.000
5.000
5.160
5.120
5.000
5.000
5.000
5.000
5.000
5.240
5.120
5.000
5.000
5.000
5.000
5.120
5.145
5.000
5.000
5.000
5.000
5.400
5.080
5.000
5.000
5.000
5.000
5.000
5.000
5.000
5.000
5.000
5.000
5.000
5.080
5.080
5.120
5.000
5.120
5.320
5.000
5.000
5.440
5.000
5.120
5.080
4.920
5.000
5.000
5.080
5.000
5.000
5.000
5.000
5.120
5.000
5.240
5.000
5.000
5.000
5.000
5.000
5.000
4.920
5.000
5.000
5.000
5.240
5.000
5.000
5.000
4.920
4.920
5.000
5.080
5.000
4.880
5.000
5.000
5.000
5.000
4.880
5.000
5.000
4.920
5.000
5.000
4.910
4.910
4.920
5.000
4.975
5.000
4.800
4.880
5.000
5.000
5.000
5.000
4.840
5.000
5.000
4.835
5.000
4.620
4.830
4.835
4.710
5.000
4.840
4.775
4.910
4.625
4.770
4.780
4.715
4.800
4.665
4.675
4.755
4.695
4.615
4.675
4.630
4.485
4.895
4.445
4.500
4.470
4.535
4.635
4.500
4.340
4.550
4.160
4.085
4.385
4.300
4.170
4.090
4.160
4.080
4.410
4.230
4.080
4.090
4.055
4.105
4.165
4.245
4.000
4.315
4.165
3.770
3.995
3.840
3.820
4.000
3.850
3.835
3.920
4.060
3.775
3.805
3.585
3.710
3.920
3.540
3.610
3.580
3.850
3.450
3.800
3.700
3.595
3.235
3.285
3.165
3.370
3.420
2.840
3.495
3.490
3.265
3.185
3.375
3.000
3.190
3.160
3.210
3.080
3.415
3.090
2.750
3.085
3.025
3.335
3.275
3.225
2.890
2.835
2.910
2.960
2.955
3.170
3.100
3.020
2.575
2.705
3.010
2.995
2.985
2.610
2.930
2.655
2.545
2.465
2.685
2.925
2.590
2.895
2.670
2.260
2.585
2.775
2.530
2.735
2.740
2.445
2.825
2.775
2.780
