I [a.u.]
6.795
6.515
6.630
7.290
7.515
7.490
7.790
8.070
8.180
8.455
8.465
8.755
9.210
9.650
9.555
10.185
10.465
10.850
11.590
11.595
11.605
12.120
12.685
12.825
13.210
13.415
13.665
14.290
14.905
15.485
16.155
16.570
17.115
17.465
17.910
18.545
19.455
19.905
20.835
20.860
21.345
22.615
23.660
24.445
25.180
25.930
27.430
28.695
29.290
30.255
31.040
31.650
33.350
34.120
34.525
35.425
36.100
36.700
37.290
38.070
38.735
39.410
39.780
40.075
40.320
40.785
41.150
41.710
42.280
42.230
42.435
43.245
43.495
43.770
44.315
44.320
44.990
45.075
45.350
45.585
45.980
46.525
47.205
47.230
48.230
48.830
49.415
49.990
50.340
50.985
51.740
52.565
52.990
54.555
55.405
55.905
56.790
58.080
59.120
60.175
61.075
62.355
63.925
65.135
65.905
66.505
68.080
68.910
70.200
71.565
72.650
73.605
75.155
76.420
76.800
77.115
77.435
78.360
79.325
80.490
81.140
82.200
83.165
84.075
85.930
87.235
87.730
88.075
88.760
89.250
89.945
90.835
91.315
91.710
91.820
92.205
92.340
92.070
92.470
92.410
92.525
92.530
92.085
92.240
91.865
91.675
91.300
89.995
89.885
88.780
88.650
88.130
87.990
87.595
86.965
86.570
85.980
84.990
84.990
84.440
84.105
83.525
82.370
82.065
81.860
81.700
80.690
80.145
79.810
79.160
79.015
78.215
77.925
77.750
77.665
77.305
76.875
76.435
76.275
76.225
75.620
75.170
74.610
74.795
74.990
74.865
75.240
75.365
75.650
76.050
76.115
76.245
76.505
77.050
76.990
77.435
77.070
77.830
78.115
78.620
78.990
79.245
80.075
80.455
80.900
81.590
81.910
81.990
82.510
83.280
83.640
83.885
84.755
84.990
84.990
85.010
86.470
86.705
87.825
87.860
87.990
88.340
88.800
89.365
89.485
89.710
89.910
90.170
90.960
90.535
90.820
90.695
90.785
90.885
91.145
90.830
90.435
89.905
90.070
89.335
89.700
89.225
88.430
88.470
87.795
87.490
87.120
85.770
85.170
84.990
84.365
84.160
83.530
82.955
81.990
81.530
81.100
80.145
79.940
79.000
78.080
77.625
76.900
75.990
75.405
74.495
73.820
73.040
72.690
72.370
71.490
71.120
69.595
69.190
68.860
68.615
67.770
67.315
66.550
65.990
65.840
65.320
64.980
64.420
63.675
63.575
63.240
62.965
61.990
61.770
61.800
61.450
61.200
60.990
60.965
60.710
60.305
60.480
60.245
59.990
60.325
59.840
59.965
59.965
59.980
59.945
59.580
59.885
59.870
59.820
59.980
59.910
60.015
60.015
59.960
60.300
60.235
60.515
60.785
60.615
60.685
60.875
60.935
61.095
61.095
61.145
61.825
61.570
61.875
61.980
62.250
62.330
62.500
62.790
62.775
62.995
62.910
63.245
63.070
63.405
63.405
63.560
63.430
63.455
63.540
63.370
62.950
63.150
63.120
62.560
62.670
62.630
62.415
62.080
62.095
62.010
61.775
61.235
60.995
60.915
60.525
59.990
58.990
58.285
58.090
57.410
57.035
56.605
56.150
55.990
55.990
55.780
54.990
54.990
53.385
53.040
52.990
52.550
52.185
51.715
50.585
50.380
49.990
49.570
49.070
48.620
47.875
47.120
46.395
46.120
45.560
44.990
44.570
43.915
43.760
43.045
42.120
41.890
41.260
40.940
40.250
39.990
39.695
39.460
38.970
38.055
37.400
37.120
36.990
36.990
36.680
36.495
36.205
36.000
35.865
35.735
35.295
34.910
34.690
34.205
34.255
34.135
33.905
33.770
33.775
33.445
33.455
33.360
33.120
32.990
32.850
32.635
32.375
32.165
31.965
32.080
31.945
31.420
31.105
31.250
31.270
31.120
31.040
30.990
31.035
30.740
30.610
30.735
30.815
30.775
30.395
30.320
30.140
30.530
30.225
30.335
30.015
30.225
30.145
30.480
30.330
30.140
29.735
30.560
30.070
30.410
30.680
30.385
30.205
30.195
30.515
30.525
30.430
30.600
30.460
30.465
30.465
30.365
30.580
30.535
30.435
30.205
30.155
30.290
30.160
30.160
29.900
29.535
29.725
29.325
28.990
29.115
29.115
28.990
28.945
28.900
28.610
28.690
28.665
28.325
28.100
27.980
27.990
27.990
27.620
27.270
27.065
26.695
26.825
26.330
26.095
25.990
24.780
25.185
24.940
24.780
24.450
24.065
23.990
23.865
23.910
23.380
23.155
22.705
21.930
21.540
21.595
20.990
21.115
20.990
20.990
20.900
20.475
19.990
19.990
19.340
18.690
18.605
18.395
17.990
17.900
17.785
17.825
17.990
17.990
17.990
17.445
17.245
17.145
17.000
16.850
16.415
16.000
15.705
15.630
15.195
15.375
15.475
14.980
15.030
14.820
14.655
14.910
14.630
14.555
14.380
14.145
14.190
13.775
13.835
13.900
13.455
13.365
13.185
13.060
13.195
13.120
12.995
12.690
12.990
12.560
12.980
12.685
12.685
12.310
11.990
12.400
12.205
12.205
12.205
11.990
11.865
11.990
11.990
11.645
11.990
11.565
11.780
11.775
11.375
11.585
11.695
11.450
11.445
11.285
11.155
11.230
11.075
10.950
11.090
10.990
11.060
11.115
10.875
10.865
11.005
10.850
11.035
10.885
10.765
10.555
10.940
10.780
10.620
10.720
10.465
10.590
10.380
10.245
10.465
10.140
10.215
10.530
10.350
10.530
10.425
10.115
10.015
10.055
10.000
10.000
9.855
9.965
9.885
9.990
9.625
9.745
9.850
9.640
9.680
9.910
9.655
9.435
9.470
9.300
9.185
9.510
9.325
9.330
9.070
9.210
8.820
8.880
8.755
9.075
8.590
8.650
8.340
8.170
8.435
8.475
8.495
8.225
8.245
8.320
7.990
7.940
8.065
7.990
8.190
7.915
7.990
7.990
7.990
7.990
7.830
7.425
7.850
7.785
7.660
7.075
7.165
7.155
7.490
7.580
7.030
7.065
7.205
6.515
6.980
6.855
6.165
6.370
6.255
5.770
5.640
5.960
5.825
5.285
5.075
5.115
5.070
5.330
5.075
4.990
4.990
5.000
4.990
4.990
4.990
4.990
4.990
4.990
4.990
4.990
4.990
4.990
4.980
4.900
4.955
4.745
4.965
4.655
4.525
4.480
4.725
4.450
4.000
4.255
4.275
4.240
4.160
4.235
3.820
3.990
4.160
4.070
3.740
3.820
3.840
3.905
3.860
3.905
3.565
3.820
3.580
3.865
4.030
3.745
3.665
3.885
3.615
3.430
3.645
3.325
3.450
3.345
3.320
3.350
3.480
3.465
3.175
3.235
2.815
2.830
3.355
3.660
2.785
2.770
3.040
2.925
3.360
3.005
2.770
2.715
2.900
3.065
2.905
3.040
2.875
2.925
3.135
2.345
2.470
3.060
2.925
2.935
2.610
2.805
2.560
2.865
3.025
2.710
2.570
2.835
2.645
2.690
2.635
2.375
2.730
2.395
2.450
2.610
2.150
2.305
2.615
2.680
2.145
2.355
2.350
2.070
2.305
2.355
2.140
2.125
2.230
2.285
2.360
2.490
2.430
2.160
2.125
2.440
2.275
2.450
2.550
2.745
2.335
2.115
2.480
2.455
2.460
2.355
2.405
2.350
2.290
2.385
2.625
2.550
2.370
2.120
2.235
2.440
2.325
2.065
2.195
2.270
2.070
2.235
2.245
2.120
2.215
2.220
2.260
2.115
1.990
2.065
2.065
2.065
2.120
1.990
1.990
2.090
2.070
1.990
2.235
2.160
2.000
1.990
2.250
1.990
2.250
1.990
2.015
1.990
2.120
2.070
1.990
2.015
1.990
2.070
1.990
1.990
2.015
2.185
1.990
2.055
1.990
1.990
2.015
1.980
2.075
1.990
2.015
1.990
1.990
1.900
2.040
2.000
1.990
1.990
1.990
1.980
1.990
1.990
1.980
1.990
1.990
1.990
1.835
1.905
1.990
1.965
1.990
1.990
2.115
1.990
1.790
1.990
2.115
1.840
1.865
1.900
1.850
1.680
1.900
1.905
1.960
1.735
1.745
1.860
1.910
1.735
1.910
1.655
1.860
1.690
1.860
1.990
1.820
1.900
1.575
1.735
1.835
1.835
1.860
1.880
1.785
1.480
1.560
1.910
1.980
1.825
1.840
1.695
1.910
1.780
1.680
1.640
1.660
1.575
1.630
1.515
1.655
1.570
1.645
1.620
1.590
1.540
1.600
1.560
1.715
1.425
1.765
1.775
1.690
1.315
1.605
1.610
1.695
1.595
1.380
1.240
1.555
1.580
1.595
1.450
1.295
1.555
1.800
1.540
1.485
1.365
1.520
1.545
1.235
1.400
1.585
1.415
1.380
1.210
1.630
1.500
1.295
1.605
1.450
1.175
1.480
1.485
1.595
1.385
1.200
1.515
1.405
