I [a.u.]
2.915
2.950
2.970
3.360
3.320
3.595
3.525
3.855
3.995
3.910
3.730
4.095
4.260
4.445
4.605
4.820
4.855
5.000
5.265
5.190
5.480
5.345
5.925
6.865
6.995
7.435
7.420
7.780
8.210
8.270
8.810
8.955
9.355
10.355
10.620
10.270
10.790
11.395
11.880
12.300
12.315
12.625
13.140
13.525
13.705
13.965
13.930
14.100
14.835
15.185
15.355
15.430
15.440
15.620
16.075
16.010
16.035
16.175
15.975
16.475
15.920
16.315
16.280
16.045
16.135
16.160
16.460
16.115
16.375
15.930
16.075
16.620
16.640
16.130
16.165
15.820
16.245
16.620
16.440
16.380
16.345
16.130
16.405
16.350
16.475
16.425
16.815
16.865
17.765
18.085
18.145
18.965
19.205
19.670
20.000
20.710
21.105
20.950
21.705
22.150
22.515
23.340
24.050
24.170
24.650
25.500
25.915
26.440
26.615
27.495
28.085
28.315
28.930
29.255
29.715
29.385
29.795
30.275
31.020
31.540
31.750
32.270
32.800
33.310
34.180
34.350
34.735
34.965
35.035
35.230
35.650
35.870
36.575
36.835
36.430
36.670
36.790
37.015
37.045
36.860
37.555
37.580
37.370
36.945
36.970
36.835
36.960
36.835
36.085
36.175
35.765
35.735
35.945
35.575
35.425
35.380
35.325
35.250
35.050
34.880
34.560
34.615
34.420
34.030
33.910
33.790
33.260
33.300
33.140
33.065
33.065
32.430
32.655
32.480
32.475
32.485
31.935
32.250
31.815
31.855
31.815
31.640
31.690
31.860
31.925
31.675
32.120
32.250
32.335
32.260
32.480
32.950
32.700
32.690
33.035
33.200
33.305
33.950
33.680
33.800
34.090
34.565
34.385
34.390
34.985
35.485
35.390
35.500
35.480
35.765
36.500
36.720
36.660
37.075
37.140
37.580
37.990
38.130
38.225
38.630
38.855
39.115
39.435
39.785
39.765
39.985
40.040
40.385
40.650
41.210
40.565
41.110
41.075
41.110
41.405
41.480
40.940
41.355
41.210
41.125
41.135
40.760
40.285
40.650
40.160
39.770
39.820
39.475
38.630
38.805
38.585
38.765
38.510
37.965
38.100
38.095
37.810
37.525
37.255
36.945
36.865
36.245
36.165
35.595
35.615
35.310
35.095
34.880
34.790
34.605
34.255
33.375
33.310
33.380
32.940
32.570
32.480
32.255
32.030
31.870
31.475
31.430
31.250
30.960
30.875
30.480
30.255
30.255
29.990
30.145
29.975
29.570
29.555
29.795
29.880
29.485
29.400
29.210
29.490
29.575
29.340
29.315
28.995
29.310
29.295
29.450
29.330
29.260
29.400
29.480
29.690
29.690
29.865
29.905
29.910
29.960
29.690
30.245
29.950
30.085
30.085
30.210
30.470
30.610
30.740
30.765
30.740
30.795
30.790
31.045
31.270
31.170
31.340
31.435
31.300
31.335
31.340
31.380
31.245
31.170
31.065
31.185
30.430
30.830
30.645
30.735
30.070
29.745
29.490
29.655
29.295
28.835
28.480
28.135
27.510
27.345
26.880
26.790
26.050
25.830
25.455
24.880
24.130
23.895
23.150
22.790
22.835
22.805
22.310
22.165
21.905
21.885
21.995
21.785
21.420
21.025
21.080
20.915
20.915
20.680
20.755
20.740
20.905
20.550
20.465
20.525
20.390
20.550
20.460
20.330
20.375
20.440
20.525
20.305
20.230
20.175
20.345
20.015
19.895
19.835
19.730
20.170
19.580
19.290
19.535
19.430
19.305
19.080
19.220
19.075
19.385
18.885
18.870
19.050
18.550
18.615
18.880
18.990
18.515
18.790
18.895
18.710
18.710
18.525
18.430
18.610
18.355
18.440
18.535
18.535
18.170
18.605
18.620
18.425
18.440
18.535
18.525
18.430
18.525
18.450
18.130
18.440
18.305
18.525
18.440
18.525
18.345
18.535
18.445
18.430
18.295
18.535
18.535
18.395
18.345
18.610
18.535
18.445
18.525
18.610
18.370
18.705
19.180
18.530
18.880
18.965
18.955
18.965
19.105
19.080
19.190
19.385
19.245
19.140
19.605
19.375
19.075
19.715
19.320
19.420
19.680
19.440
19.345
19.775
19.380
19.555
19.625
19.085
19.240
19.545
19.290
19.345
19.460
19.385
19.060
19.215
19.415
19.085
19.470
19.220
19.120
19.095
19.195
19.000
18.795
18.990
18.880
18.515
18.625
18.610
18.250
18.345
17.900
18.230
18.090
17.830
17.860
17.795
17.690
17.535
17.535
17.290
16.915
16.940
16.895
16.790
16.365
16.360
16.300
16.090
15.820
15.820
15.680
15.570
15.320
14.775
14.165
14.385
14.160
13.865
13.905
13.805
13.960
14.170
13.890
14.035
13.950
13.880
13.375
13.390
13.460
12.875
12.775
13.255
12.685
12.675
12.785
12.725
12.375
12.100
12.180
12.220
12.560
12.600
12.330
11.785
12.100
11.885
12.065
12.185
11.760
11.465
11.815
11.440
11.785
11.260
11.305
11.270
11.570
11.380
10.975
11.080
11.045
11.235
11.170
11.125
10.965
10.945
10.950
10.715
10.635
10.830
10.880
10.770
10.840
10.700
10.615
10.585
10.385
10.705
10.810
10.700
10.325
10.890
10.150
10.440
10.595
10.510
10.510
10.740
10.435
10.570
10.505
10.710
10.185
10.705
10.125
10.440
10.820
10.880
10.305
10.215
10.425
10.495
10.975
10.560
10.815
11.040
10.715
10.840
10.555
10.480
10.690
11.060
10.775
10.845
10.785
10.615
10.825
10.530
10.355
10.385
10.390
10.745
10.685
10.470
10.725
10.650
10.865
10.675
10.745
10.650
10.555
10.605
10.825
10.420
10.565
10.560
10.530
10.470
10.295
10.375
10.525
10.470
10.390
10.470
10.400
10.275
10.175
10.055
10.005
10.005
9.790
9.740
10.005
9.920
10.045
9.820
9.895
9.870
9.390
9.675
9.845
9.560
9.390
9.255
9.360
9.225
9.405
9.010
8.790
8.895
9.090
8.825
8.785
8.830
8.780
8.690
8.615
8.455
8.275
8.510
8.175
8.250
8.270
7.870
8.025
7.920
7.875
7.780
7.935
7.940
7.875
7.640
7.690
7.565
7.595
7.265
7.695
7.540
7.400
7.230
7.330
7.010
7.150
6.835
6.975
6.700
6.835
6.855
6.330
6.430
5.935
6.260
6.225
5.950
5.940
6.065
5.945
5.380
5.575
5.455
5.095
5.630
5.650
5.090
5.000
5.000
5.570
5.455
5.000
5.170
5.405
5.090
5.140
4.935
5.000
5.055
5.170
4.775
5.195
5.030
5.000
4.775
4.915
5.170
4.760
5.000
4.745
4.915
4.740
4.845
4.730
5.000
4.745
4.915
4.510
4.830
4.820
4.910
4.550
4.760
4.915
4.600
4.480
4.605
4.910
4.740
4.660
4.645
4.745
4.915
4.445
4.515
4.515
4.740
4.620
4.555
4.545
4.180
4.175
4.820
4.550
4.370
4.340
4.350
4.880
4.650
4.345
4.420
4.170
4.180
4.600
4.540
4.270
4.175
4.180
4.000
4.155
4.615
4.345
4.175
4.030
4.115
4.135
4.260
4.535
4.485
4.000
4.100
4.400
4.110
4.270
4.280
4.000
4.220
4.475
4.285
4.425
4.215
4.180
3.955
4.260
4.300
4.490
4.090
4.120
4.000
4.130
4.005
3.870
4.260
4.245
4.290
4.245
4.370
4.255
4.000
4.180
4.175
3.990
4.615
4.235
3.955
4.115
4.165
4.295
4.130
4.085
4.165
4.165
4.140
4.000
4.000
4.130
4.025
3.990
3.845
3.880
4.140
4.015
3.895
4.030
3.860
3.775
3.915
3.895
4.085
4.090
4.005
3.895
3.860
3.895
4.000
3.795
3.915
3.830
3.690
3.775
3.445
3.640
3.920
3.875
3.995
3.780
3.550
3.400
3.660
3.875
3.770
3.715
3.645
3.380
3.265
3.470
3.725
3.355
3.440
3.660
3.040
3.040
3.255
3.255
3.355
3.010
3.410
3.100
2.925
3.000
2.820
2.835
2.840
2.905
3.170
2.735
2.560
2.560
2.645
2.775
3.065
2.380
2.445
2.265
2.255
2.260
2.830
2.775
2.295
2.460
2.255
2.005
2.735
2.590
2.215
2.330
2.195
2.265
2.460
2.450
2.235
2.140
2.315
2.170
2.170
2.260
2.540
2.170
2.170
2.170
2.370
2.175
2.095
2.260
2.140
2.000
2.175
2.175
2.095
2.000
2.085
2.000
2.000
2.175
2.255
1.915
1.905
2.000
2.000
2.175
2.095
1.905
2.000
2.000
2.000
2.000
2.000
2.000
2.000
1.870
2.000
2.000
2.000
1.995
1.870
2.000
2.000
1.835
2.000
1.740
2.000
1.915
2.000
1.860
1.845
1.825
1.910
1.915
1.915
1.915
1.655
1.600
1.910
1.910
1.465
