I [a.u.]
7.220
6.910
7.185
7.430
7.545
8.095
8.110
8.460
8.865
8.950
9.325
9.985
10.440
10.550
10.900
11.635
12.135
12.520
13.070
13.705
14.010
14.410
15.290
16.000
16.600
17.065
17.880
18.740
19.355
19.680
20.625
21.170
21.955
23.315
24.005
25.000
26.170
27.315
28.475
29.005
30.065
31.410
32.640
33.605
34.080
34.910
36.000
36.725
37.295
37.965
39.230
39.585
40.000
40.230
40.915
40.745
40.685
41.120
40.995
41.000
40.730
40.845
40.405
40.125
40.085
40.190
40.235
40.000
40.080
40.275
40.355
40.330
40.600
40.635
41.000
41.320
41.720
42.040
42.530
43.060
43.755
43.935
44.450
45.290
46.315
46.640
46.875
48.165
48.915
49.875
50.535
51.810
52.180
53.000
53.730
55.195
56.250
56.995
58.410
59.520
60.880
61.515
62.685
64.205
65.255
66.210
67.570
68.450
69.170
70.930
72.090
72.615
74.010
75.395
76.275
76.000
76.450
76.920
78.140
79.440
80.450
82.000
82.320
83.920
84.800
85.250
86.860
87.460
87.720
88.085
88.670
89.020
89.675
90.060
90.685
90.840
91.165
91.495
90.875
90.970
91.445
91.280
90.665
90.480
90.110
89.780
89.510
88.445
87.920
87.445
86.815
86.820
85.850
85.110
85.000
84.595
84.555
83.715
83.270
82.385
82.000
81.710
81.000
80.470
80.040
79.410
78.840
78.375
77.725
77.150
77.165
76.805
76.315
75.915
76.015
75.190
74.685
74.720
74.545
74.000
72.995
72.300
72.300
72.375
72.845
72.830
73.070
72.895
73.635
73.735
74.255
74.705
74.220
74.550
75.025
75.205
75.690
76.120
76.000
76.070
76.535
77.255
77.555
77.830
78.445
78.970
79.405
79.890
80.500
80.920
81.430
81.835
82.450
82.555
83.135
83.355
84.555
84.590
84.700
84.910
85.170
86.220
87.085
87.085
87.495
87.830
87.910
88.275
88.465
88.380
89.130
89.200
89.445
89.000
89.135
89.280
89.220
88.975
89.095
88.830
88.295
88.635
88.190
87.790
88.000
87.025
86.870
86.235
85.760
85.000
84.910
84.380
84.085
83.640
82.945
82.295
81.920
81.325
80.420
79.485
78.915
78.065
77.325
76.780
75.980
75.210
74.600
73.870
73.225
72.255
71.910
71.550
70.860
69.735
69.000
68.805
68.205
67.890
67.175
66.190
66.080
65.790
65.375
64.760
64.715
64.085
63.205
63.065
62.740
62.650
62.090
61.840
61.890
61.765
61.240
61.170
61.170
61.085
61.000
60.670
60.555
60.535
60.615
60.245
60.210
60.440
60.155
60.235
60.515
60.415
60.550
60.485
60.880
60.930
61.000
60.910
61.195
61.280
61.195
61.440
62.165
61.895
61.830
62.430
62.480
62.715
62.735
62.745
63.125
63.440
63.890
63.800
63.995
64.000
64.455
64.355
64.785
65.165
65.170
65.525
65.795
65.800
65.555
65.920
65.680
65.790
65.790
65.850
65.910
65.795
65.680
65.475
65.330
65.395
65.550
65.050
65.165
64.770
64.770
64.475
64.155
63.240
62.500
61.810
61.290
61.320
61.280
61.000
60.735
60.470
60.185
60.120
59.725
59.260
58.740
57.800
57.185
57.050
56.495
55.920
55.765
55.230
54.810
53.225
53.085
52.920
52.580
51.905
51.150
50.255
50.085
50.000
49.275
48.990
48.360
48.000
47.715
46.590
46.110
45.920
45.445
45.080
44.530
43.940
44.000
43.400
43.025
42.885
42.380
42.120
41.925
41.400
41.045
40.920
40.330
40.165
40.000
39.920
39.920
39.710
39.285
38.980
38.910
38.870
38.675
38.060
37.535
37.300
37.085
37.360
37.000
37.000
37.000
37.000
37.000
37.000
37.000
37.000
36.875
36.920
37.000
37.000
37.000
36.760
36.565
36.460
36.590
36.560
36.565
36.470
36.645
36.505
36.615
36.915
36.665
36.915
36.735
36.815
36.615
36.610
36.830
37.000
36.930
37.000
37.000
37.000
37.000
37.000
37.085
37.065
37.085
37.380
37.125
37.590
38.280
38.080
38.415
38.440
38.360
38.495
38.850
39.000
38.865
38.995
38.590
38.295
38.520
38.535
38.230
38.475
37.775
37.595
37.860
37.915
37.810
38.015
37.340
37.065
37.090
37.240
37.240
37.090
37.310
37.000
36.825
37.000
36.705
36.300
36.355
36.000
36.265
36.000
35.165
35.430
35.415
34.450
34.740
34.000
34.000
34.000
33.880
33.835
33.215
33.005
32.525
32.235
31.585
31.510
31.255
31.120
31.010
30.235
30.185
30.030
29.170
28.655
27.780
27.185
27.595
27.315
27.050
27.325
27.085
27.000
26.940
26.950
26.550
26.120
25.980
26.000
25.595
24.915
24.240
24.255
24.000
24.000
24.090
24.000
23.880
23.915
23.915
23.390
23.650
23.510
22.710
22.555
22.335
22.270
22.060
21.685
21.235
21.420
21.000
21.120
21.000
21.000
21.000
21.000
21.000
21.000
21.000
21.000
21.000
21.000
20.620
20.680
20.475
20.400
20.570
20.710
20.630
20.085
20.435
20.380
20.320
20.570
20.245
20.065
20.000
20.120
20.110
20.095
20.000
20.000
20.160
19.880
19.930
19.915
20.090
19.810
20.235
19.890
20.000
20.150
20.280
20.000
19.930
20.200
20.000
20.090
20.195
20.205
19.910
20.120
20.355
20.360
20.445
20.000
20.170
20.105
20.575
20.325
20.235
20.290
20.245
20.090
20.555
20.135
20.000
20.080
20.000
20.000
20.075
20.255
20.320
20.070
20.150
20.270
20.435
20.455
20.400
20.290
20.065
20.240
20.150
20.240
20.120
20.105
20.360
20.230
20.080
20.230
20.130
19.860
20.215
20.020
19.620
19.925
19.675
19.345
19.640
20.000
19.665
19.715
19.275
19.380
19.060
19.520
19.000
18.685
18.690
18.850
18.830
18.705
18.245
18.240
18.165
18.080
18.000
18.195
18.085
18.000
18.000
17.640
17.850
18.000
17.700
16.920
17.210
16.795
16.870
17.000
16.795
16.320
16.390
16.065
15.995
16.090
15.745
15.840
15.675
15.320
15.375
15.465
15.000
14.785
14.730
14.460
14.780
14.345
14.180
13.880
14.090
14.200
13.910
13.470
13.150
13.500
13.355
13.000
12.930
13.000
13.000
13.000
12.775
12.635
12.375
12.295
12.365
12.240
12.110
12.080
11.845
12.000
12.010
11.830
11.745
11.840
11.615
11.095
11.145
11.605
11.425
11.125
10.910
10.975
10.905
10.305
10.650
10.545
10.870
10.495
10.410
10.085
10.470
10.615
10.205
10.185
9.930
9.745
9.885
10.000
9.665
9.485
9.730
9.605
9.735
9.420
9.595
9.570
9.350
9.435
9.445
9.355
9.045
9.100
9.090
9.180
9.035
8.875
9.085
8.835
9.140
9.085
8.745
8.795
9.325
8.825
8.845
8.635
8.405
8.990
9.070
9.060
8.490
8.635
8.730
8.510
8.755
8.605
8.700
8.450
8.720
8.565
8.565
8.545
8.615
8.500
8.355
8.325
8.720
8.560
8.425
8.390
8.235
8.550
8.630
8.590
8.215
8.215
8.125
8.440
8.740
8.535
8.295
8.340
8.200
8.345
8.385
8.435
8.390
8.090
8.220
8.260
8.260
8.255
8.560
8.305
8.395
8.245
8.000
8.090
8.170
8.000
8.085
8.190
8.120
8.000
8.000
8.000
8.360
8.320
8.000
8.000
8.000
8.210
8.000
8.110
8.000
8.000
8.065
8.000
8.000
8.085
8.000
7.915
8.190
8.085
8.000
7.915
7.915
8.000
8.000
8.000
7.790
8.000
8.000
8.000
8.005
7.915
8.000
7.890
7.855
7.820
7.795
7.835
7.805
7.760
7.920
7.695
7.500
7.365
7.310
7.495
7.345
7.335
7.440
7.445
7.470
7.080
7.085
7.070
6.845
7.085
6.980
6.915
7.085
6.935
6.930
7.000
6.680
6.845
6.730
7.000
6.460
6.365
6.420
6.670
5.745
6.190
5.655
5.545
5.440
5.720
5.485
5.640
5.540
5.590
5.250
5.080
5.535
5.635
5.250
5.420
5.125
4.875
5.425
5.125
5.120
5.125
5.000
5.170
5.000
4.915
5.000
5.000
5.000
5.000
5.000
4.915
5.000
5.000
5.000
5.000
5.000
4.915
4.890
4.890
4.770
4.745
4.920
4.805
4.890
4.665
4.675
4.450
4.720
4.725
4.450
4.555
4.875
4.365
4.470
4.560
4.440
4.355
4.415
4.540
4.190
4.380
4.375
4.235
4.110
4.080
4.365
4.110
4.245
4.295
4.170
4.000
3.920
4.000
4.000
4.085
3.880
4.000
4.000
4.000
3.930
4.000
4.000
4.000
3.865
3.760
3.915
3.990
3.500
3.830
3.915
3.555
3.550
3.680
3.810
3.375
