I [a.u.]
5.000
5.225
5.000
5.610
5.370
5.240
5.485
5.870
6.525
6.710
6.710
6.570
7.000
7.000
7.210
7.780
7.750
7.695
7.830
7.550
8.000
8.090
8.090
8.000
8.100
8.415
8.415
8.610
8.790
9.325
9.055
9.530
9.800
9.740
10.135
10.260
10.775
11.315
11.205
11.250
11.880
12.405
12.305
12.695
13.360
13.380
14.250
15.000
15.810
16.010
17.070
17.920
18.090
19.070
20.080
20.910
21.215
22.385
24.000
24.435
25.385
26.215
27.080
27.595
28.910
29.530
29.700
30.215
30.800
31.425
32.665
32.960
33.395
33.765
34.105
34.170
34.610
35.115
35.360
35.585
35.780
36.280
36.305
36.700
36.880
37.000
37.170
37.645
38.205
39.035
39.595
39.900
40.225
40.565
41.530
42.145
42.675
43.070
43.820
44.780
45.610
46.295
47.090
48.070
48.610
49.395
50.080
50.990
52.170
52.880
53.135
54.345
55.465
55.900
56.565
56.255
57.105
57.665
58.880
59.700
60.420
61.260
62.175
63.260
64.295
65.035
65.555
66.250
66.990
67.630
67.900
68.190
68.565
69.000
69.000
69.915
69.950
70.120
70.720
70.970
70.800
71.610
70.890
71.330
71.235
71.050
70.780
70.675
69.790
70.070
69.790
69.240
69.500
68.900
69.160
68.720
68.475
67.900
68.285
67.610
67.140
66.700
66.610
65.990
65.900
65.505
65.030
64.690
64.205
63.730
63.650
63.340
63.275
62.430
62.070
62.125
61.845
61.860
61.235
61.430
61.070
60.610
60.190
60.070
60.200
60.305
60.425
60.610
61.170
60.980
61.215
61.645
62.125
62.070
62.150
62.260
62.700
63.080
63.285
63.645
64.195
64.375
64.780
65.215
65.700
66.150
66.450
66.725
67.060
68.060
68.405
68.780
68.900
69.160
70.190
71.035
71.140
71.690
71.585
72.250
72.475
73.510
73.645
73.790
74.205
74.690
75.340
75.685
75.465
75.900
75.790
76.340
76.240
76.260
76.305
76.195
76.150
76.125
76.070
75.870
75.520
75.685
74.545
74.690
74.230
73.600
73.285
73.230
72.495
72.070
72.070
70.970
70.730
70.920
70.085
68.900
69.060
68.375
67.675
66.995
66.810
66.080
66.070
65.320
64.900
64.520
63.860
63.440
62.575
62.205
61.765
61.070
60.980
60.215
59.820
59.610
58.900
58.375
57.690
57.115
56.910
56.440
56.070
55.645
55.485
55.000
55.330
54.205
54.510
53.740
53.160
53.500
53.450
52.920
52.810
52.595
52.485
52.780
52.820
52.380
52.585
52.370
52.465
52.360
52.375
52.250
52.505
52.215
52.420
52.515
52.485
52.505
52.645
52.900
52.900
52.690
53.160
53.000
53.240
53.500
53.565
53.610
53.840
54.120
54.020
54.460
54.640
55.250
55.645
55.450
55.385
55.460
55.505
56.250
56.170
56.440
56.505
56.550
56.565
56.340
57.070
57.170
57.100
57.090
57.250
57.250
56.925
57.430
57.630
57.035
56.810
56.675
56.505
56.820
56.430
56.100
56.225
56.000
55.900
55.050
55.385
55.080
54.390
53.120
53.000
52.810
52.610
52.170
51.920
51.710
51.900
51.325
50.810
50.250
50.305
49.970
49.250
48.720
48.605
47.750
47.070
46.815
46.195
45.565
45.000
44.525
44.225
43.900
43.350
42.520
42.070
41.650
40.820
40.430
40.000
39.595
39.170
38.235
37.970
37.385
37.000
36.750
36.695
35.880
35.680
35.595
34.990
34.370
34.120
33.900
33.780
33.900
33.145
32.965
32.585
32.225
32.050
31.755
31.370
31.305
30.990
30.790
30.395
30.200
29.755
29.700
29.800
29.000
29.080
28.990
28.845
28.675
28.645
28.585
27.845
28.145
27.900
27.585
27.610
27.300
26.900
27.070
27.290
26.660
26.575
26.290
26.365
26.205
26.195
25.710
25.865
25.605
25.950
25.460
25.355
25.435
24.980
25.225
25.050
25.165
25.020
25.010
24.605
24.475
24.495
24.395
24.920
24.910
24.630
24.710
24.240
24.545
24.680
24.970
24.770
24.385
24.160
24.250
24.715
24.840
24.325
24.280
24.505
24.180
24.000
24.145
24.110
24.080
23.980
23.880
23.970
23.585
23.650
23.180
23.265
23.540
23.090
23.160
23.295
22.845
22.575
21.980
21.645
22.215
21.880
21.450
21.225
21.120
21.000
21.000
21.270
21.000
20.820
20.695
20.715
20.625
20.555
20.475
20.010
20.000
19.860
19.705
19.250
19.055
19.050
18.850
18.550
18.080
18.225
18.215
18.000
17.865
17.695
17.455
17.485
17.465
16.680
16.455
16.030
15.915
15.750
15.530
15.675
15.775
15.920
15.900
15.505
15.660
15.215
15.135
14.920
14.635
14.380
14.625
14.525
13.985
13.900
13.955
13.865
13.950
14.080
13.590
13.820
13.725
13.515
13.200
13.100
13.150
13.300
13.135
12.880
12.920
13.000
12.790
12.920
13.000
12.755
12.560
12.350
12.575
12.610
12.710
12.685
12.155
12.155
12.415
12.075
12.165
12.460
12.035
11.940
12.050
11.740
12.195
12.075
12.170
11.865
12.320
12.000
12.045
12.015
12.180
11.770
11.770
12.000
11.595
12.040
12.160
11.960
11.910
11.900
11.590
11.745
12.170
12.365
11.765
11.615
12.000
11.730
12.090
11.950
12.020
11.860
12.000
11.865
11.880
11.695
11.635
12.135
12.215
12.290
11.900
12.195
11.930
12.135
11.760
11.910
11.915
12.260
12.075
11.680
11.680
11.955
11.820
12.320
11.850
12.315
11.980
12.135
11.970
12.240
11.910
12.355
11.960
12.475
12.050
12.105
11.910
12.135
11.880
12.305
11.670
12.090
11.965
12.045
11.925
11.645
11.925
11.745
11.700
11.730
11.380
11.445
11.310
11.705
11.300
11.390
11.360
11.405
11.475
11.740
11.385
11.100
10.910
11.335
11.455
11.425
10.905
10.775
10.845
10.930
10.875
10.755
10.560
10.355
10.560
10.455
10.435
10.460
9.905
9.890
10.270
9.735
9.945
9.790
9.565
9.820
9.450
9.005
9.335
9.375
9.230
8.750
8.975
8.760
8.685
9.040
8.590
8.410
8.575
8.555
8.615
8.710
8.000
8.100
8.075
8.310
8.145
7.850
8.150
8.000
7.830
8.080
7.820
7.920
7.745
7.920
7.760
7.925
7.615
7.780
7.410
7.550
7.675
7.195
7.325
7.415
7.225
7.280
7.120
7.215
7.250
7.000
7.115
7.195
7.040
6.510
7.080
7.370
7.210
7.270
6.270
6.660
6.920
6.925
6.535
6.645
6.350
6.345
6.630
6.285
6.275
6.830
6.310
5.540
6.170
6.520
5.950
5.805
5.820
5.665
6.000
5.410
5.530
5.945
5.435
5.940
6.150
5.370
5.160
6.010
5.630
5.630
5.570
5.090
5.620
5.695
5.910
5.840
5.100
5.190
5.370
5.295
5.170
5.350
5.270
5.460
5.630
5.630
5.470
5.135
5.375
5.470
5.460
5.270
5.080
5.240
5.395
5.410
5.605
5.540
5.340
5.250
5.330
5.155
5.740
5.200
5.190
5.305
5.250
5.215
5.675
5.305
5.250
5.430
5.380
5.610
5.635
5.275
5.420
5.270
5.925
5.630
5.250
5.240
5.645
5.350
5.660
5.655
5.375
5.390
5.450
5.470
5.570
5.510
5.200
5.155
5.170
5.660
6.020
5.860
5.230
5.160
5.190
5.600
5.855
5.345
5.660
5.080
5.000
5.740
6.150
5.370
5.555
5.420
5.000
5.210
5.845
5.580
5.170
5.270
5.000
5.560
6.060
5.080
5.235
5.080
5.000
5.410
5.930
5.230
5.120
5.080
5.120
5.000
5.615
5.240
5.120
5.320
5.000
5.240
5.300
5.000
4.850
5.235
5.000
5.080
5.000
5.000
5.000
5.000
5.080
5.000
5.000
5.000
5.000
5.000
4.830
5.000
5.000
5.000
4.920
5.000
5.000
5.000
5.000
5.000
4.840
4.865
4.925
5.000
5.000
4.830
4.830
4.685
4.880
4.920
4.850
4.910
4.545
4.675
4.790
4.455
4.485
4.630
4.480
4.455
4.310
4.250
4.200
4.425
4.470
4.515
4.350
4.080
4.290
4.000
4.000
4.305
4.450
4.000
3.880
3.880
3.850
4.080
4.135
3.775
3.925
4.000
3.630
4.305
4.000
3.605
3.770
3.675
3.900
4.170
3.755
3.445
3.670
3.490
3.535
3.675
3.675
3.455
3.580
3.390
3.310
3.625
3.505
3.555
3.790
3.390
3.920
3.290
3.460
3.705
3.280
3.115
3.040
3.295
3.640
3.465
2.825
3.140
3.310
3.420
3.350
3.520
3.020
2.870
2.965
2.880
3.380
3.215
2.875
2.845
3.020
2.985
3.020
3.185
2.755
2.665
2.825
