I [a.u.]
5.530
5.650
6.135
6.225
6.445
6.775
7.470
7.705
7.585
7.915
8.360
8.250
8.840
10.000
10.085
10.100
10.820
11.400
12.170
12.650
13.085
13.760
14.160
14.345
15.660
16.090
16.640
17.820
18.085
18.995
19.190
19.935
20.835
21.320
21.860
23.450
24.000
24.175
24.725
25.825
26.520
27.060
27.695
28.355
28.640
29.095
29.675
30.145
30.420
30.625
31.160
31.455
31.915
31.795
32.085
32.305
32.460
32.105
32.435
32.525
32.165
32.260
31.995
32.465
32.355
32.360
32.165
31.780
32.455
32.200
32.195
32.160
32.015
31.915
32.085
31.460
31.360
31.610
31.630
31.640
31.455
31.555
31.285
31.705
32.210
32.565
32.590
33.345
34.200
34.825
35.725
36.460
37.000
38.560
39.275
40.000
40.800
42.175
42.615
43.705
44.730
44.955
45.975
46.940
48.000
48.695
50.000
49.800
50.830
52.200
52.550
53.000
53.950
55.240
55.905
55.380
56.000
56.160
57.085
57.880
58.915
59.630
59.800
60.715
62.055
62.740
63.410
63.580
63.805
64.210
65.020
65.200
65.000
65.675
66.210
65.675
66.000
66.000
66.000
66.000
66.000
65.925
65.640
65.905
65.525
65.325
64.750
64.050
63.365
63.000
62.745
61.995
61.905
61.580
60.800
60.985
60.545
60.150
59.765
58.840
58.995
57.950
57.355
57.205
56.865
56.245
55.590
55.925
55.495
55.325
53.985
54.030
54.090
53.700
53.000
52.725
52.265
52.990
52.715
52.495
51.835
51.840
51.745
51.455
51.725
51.840
52.000
51.820
51.905
52.495
52.840
52.640
52.990
52.835
53.000
53.000
53.000
53.000
53.170
53.510
54.660
54.650
54.775
55.470
55.610
55.790
56.000
56.305
56.265
56.705
57.200
57.550
58.300
58.720
59.220
59.000
59.620
60.075
60.095
60.480
60.840
61.160
61.255
61.435
61.545
62.000
62.000
62.285
62.695
62.295
62.445
62.085
62.220
62.420
62.170
62.355
62.085
62.000
61.465
61.125
61.000
60.725
60.425
59.905
59.925
59.085
58.835
58.075
57.990
57.475
56.950
56.670
56.075
56.000
56.000
55.400
55.000
54.565
53.200
53.000
53.000
52.345
52.000
52.000
51.255
50.370
50.000
49.790
49.835
48.930
48.455
48.165
47.460
47.075
46.710
46.905
46.030
45.315
44.845
44.620
44.410
44.000
43.825
43.075
43.220
43.165
42.365
41.740
42.005
41.615
41.590
40.845
41.210
40.900
40.870
40.740
40.440
40.495
39.930
40.460
40.000
40.550
40.085
40.000
39.920
39.825
40.095
39.990
40.095
40.000
40.000
40.245
40.210
40.095
40.000
40.375
40.340
40.535
40.670
40.255
41.000
40.840
40.825
40.800
41.375
41.440
41.390
41.640
41.990
41.905
42.070
41.805
42.755
42.550
42.610
42.715
42.840
43.000
43.095
43.085
43.165
43.210
43.235
43.160
43.200
43.085
43.375
43.535
43.170
43.085
43.000
43.000
42.990
42.745
42.915
42.590
42.160
42.325
42.000
41.535
41.795
41.420
40.595
40.165
40.000
39.755
40.000
39.705
38.990
38.890
39.115
38.290
38.520
38.155
37.365
37.000
37.000
36.695
36.410
36.210
36.210
35.540
35.000
34.655
34.200
34.000
34.010
33.285
33.240
32.420
32.990
32.365
31.550
31.420
31.155
30.935
30.670
30.210
29.500
29.800
29.445
29.000
29.000
28.285
28.370
28.000
27.915
27.495
27.420
26.800
26.905
26.820
26.610
26.375
26.295
26.000
25.740
25.835
25.580
25.485
25.235
24.905
24.705
24.790
25.000
24.745
24.075
24.305
24.240
24.000
24.000
24.210
24.000
24.170
24.000
23.905
23.905
24.000
24.000
23.990
23.740
23.800
24.000
23.990
23.485
23.750
23.810
23.590
23.790
23.630
23.370
23.745
23.390
23.840
23.420
23.830
23.800
23.670
23.800
23.460
23.545
23.990
24.000
23.820
24.000
24.160
24.000
24.000
24.000
24.165
24.160
24.240
24.250
24.715
24.515
24.420
24.620
24.555
24.325
24.750
24.735
24.930
24.790
24.555
24.830
24.190
24.345
24.255
24.640
24.375
24.325
24.085
24.010
24.360
24.170
24.000
23.990
24.000
24.000
24.000
23.990
24.000
23.990
23.835
23.925
23.915
23.535
23.660
23.410
23.000
22.295
22.325
21.935
21.650
21.610
21.550
21.190
21.075
21.000
21.120
20.990
20.870
20.990
20.795
20.170
20.375
19.935
19.880
19.820
19.740
19.280
19.575
19.025
19.015
18.280
18.000
17.905
17.990
17.715
17.085
16.870
17.340
16.755
17.120
17.610
17.540
16.635
17.020
16.255
16.410
16.805
15.745
15.300
15.490
15.370
15.490
14.990
14.915
15.205
14.995
15.070
14.585
15.000
14.695
14.445
13.960
14.095
14.130
14.175
14.310
14.075
13.845
14.000
13.600
13.500
13.620
13.175
13.160
13.280
13.325
13.325
13.075
13.160
12.925
13.210
13.000
13.000
13.065
12.840
12.925
12.705
12.760
12.740
12.960
12.840
12.370
12.665
12.705
12.750
12.710
12.355
12.790
12.810
12.715
12.740
12.810
12.625
12.320
12.505
12.485
12.445
12.365
12.285
12.455
12.925
12.460
12.315
12.355
12.535
12.895
12.540
12.315
12.240
12.645
12.675
12.720
12.420
12.540
12.750
12.575
12.590
12.510
12.270
12.565
12.675
12.810
12.495
12.495
12.495
12.580
12.290
12.505
12.315
12.435
12.405
12.455
12.475
12.690
12.480
12.470
12.710
12.615
12.570
12.740
12.290
12.040
12.545
12.360
12.450
12.485
12.390
12.085
12.250
12.160
12.280
12.000
12.160
12.160
11.745
12.000
12.160
11.835
11.825
12.000
11.840
11.840
11.870
11.835
11.585
11.830
11.755
11.130
11.240
11.165
11.095
11.630
11.000
10.875
10.905
10.630
10.715
10.755
10.540
10.565
10.600
10.210
10.370
10.165
9.720
10.150
10.100
9.890
9.995
9.780
9.215
9.460
9.225
9.140
9.165
9.030
9.250
8.685
8.610
8.325
8.335
8.425
8.370
8.440
8.095
8.285
8.215
8.000
8.000
8.000
8.000
8.000
7.880
7.790
7.715
8.000
7.825
7.490
7.710
7.665
7.355
7.570
7.405
6.970
7.245
7.360
7.000
7.195
6.955
6.715
6.460
6.830
6.715
6.905
5.905
6.530
6.245
5.690
6.110
5.260
5.580
5.995
5.585
5.955
5.075
5.595
5.075
5.000
5.350
5.245
5.000
5.080
5.000
5.190
5.000
5.010
5.000
5.000
5.000
5.000
5.000
5.095
5.000
5.160
5.160
5.000
5.000
5.000
5.000
5.000
5.000
5.000
5.000
5.000
5.000
5.000
4.920
5.000
4.880
5.000
5.000
5.000
5.000
4.840
5.000
5.000
5.000
4.840
5.000
5.000
5.000
4.825
5.000
4.920
5.000
4.730
5.000
4.605
4.915
4.835
5.000
4.905
4.905
5.000
4.925
4.835
4.905
5.000
5.000
4.790
4.920
5.000
4.580
4.915
5.000
5.000
4.835
4.990
4.905
4.835
4.630
4.920
4.835
4.630
4.915
4.845
4.720
4.755
5.000
4.915
5.000
4.370
4.640
4.915
5.085
4.925
4.385
4.835
4.795
4.765
5.000
4.840
4.745
4.990
5.000
4.795
5.000
4.670
4.675
4.520
4.535
4.710
5.000
4.880
4.715
4.825
4.540
4.645
4.590
4.670
4.530
4.610
4.800
4.920
4.720
4.880
4.620
4.440
4.510
4.725
4.630
4.570
4.490
4.275
4.635
4.720
4.500
4.450
4.410
4.155
4.300
4.600
4.250
4.080
4.295
4.000
4.550
4.455
4.160
4.285
4.010
4.045
4.355
4.000
4.000
3.915
3.945
4.000
4.105
4.165
3.835
3.915
4.175
4.025
4.175
3.990
3.835
4.015
3.810
4.070
4.000
3.665
4.000
4.000
3.880
3.825
4.000
3.705
3.305
3.715
3.620
3.640
3.545
3.680
3.500
3.245
3.470
3.680
3.385
3.140
3.005
3.260
3.370
3.000
3.140
3.010
3.175
3.180
3.245
3.150
2.955
3.085
2.685
3.090
2.665
2.745
3.210
2.905
3.270
2.965
2.770
2.625
2.915
2.760
2.345
2.665
2.795
2.835
2.535
2.795
2.415
2.165
2.620
2.745
2.525
2.645
2.105
2.240
2.460
2.750
2.610
2.235
2.000
2.240
2.535
2.590
2.460
2.240
2.240
2.165
2.595
2.540
2.085
2.165
2.160
2.375
2.385
2.300
2.120
2.085
2.470
2.455
2.385
2.000
2.075
2.250
2.255
2.175
2.075
2.075
2.000
2.175
1.835
2.000
2.075
2.000
2.010
2.000
2.075
1.990
