I [a.u.]
7.770
7.705
7.920
8.000
8.395
8.775
9.035
9.705
9.980
10.340
10.975
11.370
12.000
12.265
12.920
13.500
14.310
14.350
15.380
15.975
16.540
17.190
17.895
18.190
18.680
19.510
20.335
20.795
21.065
21.575
22.430
23.110
24.185
24.825
25.525
25.930
26.485
27.115
28.020
28.455
29.160
29.430
29.730
29.895
30.185
30.860
31.545
31.960
31.950
32.170
32.625
32.280
32.150
33.035
33.080
32.365
32.665
31.810
31.770
31.560
31.515
30.940
30.545
30.485
30.200
30.285
30.075
29.875
29.495
29.810
29.995
29.865
30.555
30.810
31.145
31.525
31.775
32.290
32.980
33.420
33.650
34.085
34.205
34.745
35.640
35.935
36.480
36.790
37.000
37.805
37.955
39.280
39.400
39.915
40.455
41.035
41.690
42.250
42.795
43.825
44.500
45.245
45.700
46.425
47.230
48.170
48.885
49.690
50.600
50.680
51.605
52.320
52.960
53.315
53.710
53.870
54.035
54.790
54.560
56.020
56.630
57.350
57.500
58.495
59.475
60.330
60.270
60.580
60.955
61.125
61.285
61.670
62.005
62.405
62.775
62.355
62.120
62.520
62.290
62.545
62.370
61.755
61.750
61.875
61.310
61.295
60.960
60.125
59.540
59.120
58.730
58.450
58.420
57.750
57.395
56.855
56.540
56.375
55.855
55.540
55.355
54.685
54.210
53.355
53.515
53.005
52.670
52.475
52.170
51.790
51.625
51.235
51.020
50.750
50.775
50.150
50.365
49.960
49.930
49.605
49.500
49.015
48.830
48.625
49.125
48.685
48.890
48.960
49.500
49.580
49.450
49.480
49.710
49.810
50.000
49.890
49.960
50.355
50.475
50.405
50.725
51.110
51.170
51.480
51.620
51.770
52.605
52.605
52.355
52.605
53.025
53.410
53.540
54.210
53.630
53.790
54.645
54.640
54.990
55.540
55.370
55.330
55.475
55.790
56.030
56.290
56.225
56.410
56.290
56.645
56.560
56.500
56.520
56.570
56.475
56.540
56.565
56.185
56.100
56.000
55.775
55.380
55.475
55.025
54.705
54.210
54.210
53.620
53.025
52.580
52.605
52.205
51.755
51.370
50.995
50.320
50.040
49.485
49.290
48.825
48.355
47.750
46.895
46.755
45.960
45.520
45.460
44.540
44.485
44.080
43.745
43.080
42.230
42.345
41.935
41.505
41.045
40.275
39.815
39.730
39.400
38.725
38.195
37.500
37.215
36.895
36.790
36.685
36.605
36.085
35.800
35.625
35.050
34.750
34.935
34.545
34.085
34.085
33.835
33.890
33.730
33.540
33.080
33.215
33.120
33.150
32.660
32.665
32.715
32.585
32.690
32.890
32.500
32.605
32.680
32.040
32.420
32.560
32.715
32.165
32.290
32.125
32.000
32.040
31.630
31.540
31.440
30.750
30.470
30.170
29.735
28.770
28.500
27.815
27.145
26.130
24.710
23.810
22.980
21.290
20.690
19.835
18.205
17.115
15.650
14.850
13.675
12.755
11.770
10.790
10.020
9.185
8.130
8.000
7.785
7.225
6.770
6.730
6.645
5.670
5.920
6.075
5.750
5.910
5.930
6.335
6.445
7.080
7.120
7.220
7.540
8.005
7.960
8.290
8.805
9.130
9.665
10.735
11.085
11.010
11.590
12.670
12.690
13.310
13.395
13.520
14.295
14.830
14.910
15.470
15.665
16.440
16.540
16.525
16.870
17.585
17.625
17.555
17.685
17.920
18.000
17.785
18.020
18.125
18.570
18.165
18.120
18.120
18.125
18.275
18.615
18.245
18.335
18.410
18.400
18.340
18.000
18.335
18.405
18.185
18.365
18.085
18.125
18.125
18.150
17.940
18.000
18.065
18.000
18.000
18.125
17.875
17.895
18.065
17.835
17.960
18.000
18.000
17.935
17.895
17.795
18.065
17.810
17.810
17.920
17.785
17.915
17.920
18.000
17.895
17.920
18.000
17.680
17.440
17.710
17.770
17.895
17.775
17.480
17.510
17.640
17.685
17.560
17.375
17.310
17.550
17.205
17.205
17.395
17.465
17.650
17.405
17.065
17.250
17.040
16.980
17.150
17.255
17.065
16.685
16.815
17.085
16.810
16.745
16.600
16.430
16.485
16.855
16.500
16.530
16.285
15.790
15.980
16.405
15.790
15.830
16.245
15.390
15.810
16.165
16.060
15.605
15.920
15.275
15.435
16.125
15.815
15.250
15.795
15.210
15.410
15.640
15.080
15.350
15.090
15.125
15.215
15.145
15.185
15.120
14.940
14.730
14.990
14.920
14.790
15.205
14.545
14.145
14.480
14.280
14.630
14.390
14.105
13.885
14.085
13.465
13.275
13.390
13.085
13.005
13.045
13.070
13.050
13.280
13.285
13.215
13.110
13.045
12.750
12.720
12.895
12.605
12.210
12.490
12.295
12.165
12.120
12.000
11.880
12.200
11.895
12.080
12.205
12.005
11.770
11.600
11.645
11.560
11.770
11.625
11.390
11.070
10.915
11.145
11.515
11.330
11.125
11.145
11.030
11.080
11.120
10.610
10.695
10.710
10.680
10.710
10.555
10.835
10.880
10.335
10.585
10.380
10.330
10.325
10.205
10.585
10.475
10.355
10.085
10.190
10.040
10.145
10.125
10.120
9.955
9.675
9.860
10.080
10.035
10.200
9.955
9.715
9.960
10.245
10.185
9.815
9.730
9.710
9.920
9.755
10.010
10.205
10.330
9.805
10.000
9.730
9.600
10.005
9.775
9.560
9.910
9.685
9.630
9.650
9.775
9.690
9.790
9.755
9.425
9.335
9.350
9.340
9.405
9.200
9.650
9.710
9.585
9.645
9.490
9.285
9.285
9.435
9.500
9.185
9.450
9.435
9.120
9.300
9.340
9.125
8.835
9.100
9.245
8.940
8.820
9.415
8.840
8.750
8.975
8.855
8.945
8.730
9.085
8.880
8.470
8.245
8.655
8.635
8.790
8.685
8.565
8.160
8.415
8.460
8.265
8.000
8.395
8.350
8.125
8.000
8.065
8.000
8.185
8.000
7.915
7.810
7.815
7.945
7.795
7.855
7.855
7.790
7.600
7.680
7.160
7.190
7.460
7.365
6.975
7.120
7.000
7.070
7.045
6.405
6.745
6.635
6.425
5.675
6.410
6.870
5.960
5.625
5.680
5.540
5.745
5.250
5.210
5.370
5.000
5.000
5.170
5.275
5.125
5.000
5.000
4.875
4.900
4.830
5.000
4.935
4.915
4.600
4.690
4.810
4.790
4.545
4.360
4.290
4.545
5.000
4.350
4.390
4.645
4.270
4.650
4.420
4.320
4.520
4.360
4.310
4.485
4.150
4.000
4.015
4.235
4.150
4.065
4.000
3.955
4.195
3.970
4.005
4.020
4.210
4.080
3.795
4.020
4.120
4.335
4.000
3.870
3.885
3.935
3.765
4.000
4.000
4.000
4.000
3.870
3.810
3.980
3.765
4.145
3.915
3.855
3.710
3.980
4.125
4.000
3.870
3.755
3.915
3.980
4.000
3.855
3.790
4.000
3.810
4.000
4.005
4.000
3.800
3.915
3.810
4.000
4.105
4.065
3.860
3.620
3.745
4.000
3.915
3.870
3.785
3.605
3.795
3.815
3.640
3.710
3.380
3.835
3.875
3.710
3.495
3.835
3.750
3.775
3.585
3.805
3.505
3.295
3.600
3.705
3.360
3.500
3.570
3.540
3.645
3.685
3.270
3.310
3.285
3.340
3.440
3.100
3.210
3.185
3.145
3.035
3.370
3.245
3.070
2.935
3.220
2.865
3.020
3.010
2.910
2.935
2.880
2.880
3.085
2.790
2.880
2.230
2.645
2.625
2.855
2.560
2.720
2.480
2.675
2.575
2.435
2.440
2.520
2.665
2.340
2.125
2.210
2.270
2.230
2.205
2.065
2.085
2.215
2.160
2.270
2.080
2.150
2.105
2.165
2.000
1.920
2.230
2.085
2.000
2.255
2.000
1.870
2.000
2.105
2.105
2.105
1.870
1.920
2.000
2.000
2.050
1.870
1.895
2.000
1.870
1.745
1.920
2.000
1.870
1.895
2.040
2.000
1.870
2.000
1.915
1.650
1.870
2.000
1.710
1.875
1.915
1.485
1.775
1.875
1.935
2.000
1.565
1.625
1.875
1.835
2.000
1.790
1.315
1.920
1.745
1.935
1.855
1.835
1.715
1.875
1.600
1.935
1.730
1.580
1.275
1.855
1.915
1.625
1.355
1.705
1.265
1.790
1.625
1.755
1.295
1.610
1.520
1.710
1.795
1.545
1.935
1.420
1.645
1.495
1.690
1.695
1.550
1.665
1.630
1.560
1.645
1.585
1.565
1.610
1.440
1.480
1.475
1.640
1.755
1.355
1.300
1.480
1.565
1.705
1.650
1.310
1.710
1.665
1.375
1.770
1.710
1.560
1.480
1.755
1.430
1.430
1.670
1.690
1.575
1.790
1.515
1.705
1.835
1.145
1.150
1.625
