I [a.u.]
4.740
4.595
4.850
4.780
4.815
5.170
4.915
5.115
5.510
5.960
6.390
6.105
6.660
7.175
7.175
7.915
7.905
8.085
8.260
8.585
9.060
9.730
9.935
10.050
10.715
11.000
11.235
11.635
11.630
12.340
12.700
12.820
12.910
13.230
13.750
13.750
14.020
14.350
14.845
14.990
15.240
15.480
15.815
16.060
16.175
16.170
16.520
16.510
16.435
16.830
16.520
16.590
16.825
16.905
16.610
16.515
16.540
15.830
16.085
15.945
15.730
15.635
15.525
15.295
15.530
15.445
15.240
15.250
15.340
15.335
15.690
16.000
15.745
16.000
16.565
16.405
16.555
17.010
17.230
17.345
17.710
18.000
18.075
18.075
18.200
18.665
18.815
19.230
19.550
19.745
19.825
20.085
20.240
20.680
20.900
21.000
21.000
21.130
21.860
22.200
23.295
23.285
23.540
24.075
24.340
24.900
25.150
25.955
26.000
26.195
26.890
27.435
27.915
28.065
28.230
28.430
28.765
28.975
28.710
29.220
29.085
29.140
29.570
30.245
31.110
31.280
31.170
31.290
31.765
31.775
31.595
32.055
32.065
32.010
32.350
32.145
31.870
32.240
32.140
32.145
31.985
32.235
31.815
31.655
31.230
31.220
31.300
31.105
30.795
30.315
30.095
30.125
29.715
29.565
29.195
29.230
29.395
29.155
29.090
28.955
28.435
28.365
28.275
28.090
28.065
27.975
27.435
27.350
27.590
27.345
27.385
27.305
27.050
26.510
26.575
26.660
26.375
26.750
26.295
26.250
26.140
26.530
25.990
26.075
26.095
26.385
26.095
25.960
26.265
26.660
26.865
26.955
27.070
27.050
26.895
27.225
27.640
27.715
28.000
28.050
27.815
28.370
28.320
28.505
28.740
28.660
28.830
29.285
29.160
29.495
29.395
29.525
29.820
29.985
30.005
30.340
30.730
30.730
30.985
30.955
31.185
31.125
31.135
31.350
31.580
31.665
31.830
31.790
32.040
31.755
32.080
32.050
31.955
31.795
32.105
31.740
31.625
31.660
31.660
31.635
31.615
31.175
31.150
30.905
31.260
30.850
30.570
30.260
30.300
30.230
29.885
29.520
29.135
29.000
28.890
28.805
28.285
28.310
27.465
27.505
27.730
27.335
26.795
26.670
26.150
25.925
25.835
25.475
24.970
25.105
24.605
24.885
24.535
24.155
23.985
23.985
23.900
23.715
23.490
23.495
22.595
22.725
21.920
22.080
22.030
21.630
21.405
21.415
21.195
21.300
21.275
21.000
21.230
20.930
21.000
21.065
20.810
20.730
20.815
20.985
20.745
20.765
20.730
20.740
21.000
20.900
20.730
20.745
20.730
20.695
20.915
20.965
20.815
20.815
21.060
20.830
20.900
20.900
20.830
21.000
20.830
21.000
20.985
21.000
20.985
20.730
20.730
20.730
20.725
20.985
20.730
20.520
20.505
20.245
19.970
19.660
19.420
18.760
18.635
17.915
17.720
17.515
17.140
16.175
15.735
15.090
14.655
14.050
13.900
12.920
12.815
12.145
12.070
11.555
11.505
10.980
10.610
10.740
10.330
10.350
10.030
10.240
9.800
10.090
9.885
10.290
10.445
10.230
10.345
11.070
10.985
11.565
11.370
11.695
11.875
12.555
12.420
12.675
12.420
12.570
12.985
13.210
13.075
13.310
13.570
13.490
13.660
13.730
14.010
13.680
13.895
14.280
14.330
13.590
14.000
13.680
13.900
14.205
14.185
14.125
13.610
14.070
13.670
14.060
13.985
13.745
13.595
13.350
13.580
13.855
13.505
13.760
13.605
13.675
13.595
13.425
13.140
13.565
13.595
13.655
13.335
13.350
13.295
13.190
13.165
13.150
13.210
13.080
13.050
13.125
12.835
13.090
12.905
12.730
12.780
13.140
12.885
12.990
12.890
12.935
12.780
12.980
13.035
12.640
12.815
12.840
13.000
12.895
13.075
12.815
12.900
12.900
12.680
12.745
12.950
12.730
12.990
13.245
13.080
12.880
12.965
12.730
12.985
12.815
12.985
12.985
12.810
12.880
12.730
12.915
12.815
13.165
13.415
13.135
13.055
13.185
13.195
13.075
12.830
13.035
13.065
13.075
12.830
12.760
13.070
13.150
13.005
12.985
12.680
12.825
12.930
12.775
12.650
12.640
12.850
12.425
12.555
12.640
12.525
12.230
12.525
12.225
12.455
12.750
12.590
12.045
12.290
11.945
12.200
12.345
12.350
11.985
11.740
11.815
11.820
11.790
11.780
11.640
11.845
11.690
11.145
11.335
11.085
11.505
11.695
10.740
10.845
10.795
10.900
10.965
10.825
10.350
10.200
10.440
10.605
10.300
10.145
9.655
9.605
9.350
9.210
9.080
9.355
9.320
9.625
9.430
9.670
9.095
9.190
8.895
9.130
8.970
9.035
8.615
8.595
8.620
8.415
8.205
8.660
8.895
8.450
8.195
8.230
8.505
8.140
8.000
7.920
8.090
8.075
8.415
8.350
7.985
8.120
8.065
8.090
7.905
7.910
8.000
7.815
8.090
8.000
8.105
8.000
7.915
7.865
7.625
7.595
7.815
7.985
7.450
7.595
7.780
7.575
7.640
7.815
7.765
7.500
7.830
7.595
7.665
7.895
7.695
7.830
7.485
7.400
7.520
7.815
7.760
7.400
7.445
7.780
7.440
7.660
7.695
7.780
7.815
7.675
7.725
7.345
7.355
7.775
7.790
7.830
7.985
7.010
7.520
7.570
7.700
7.815
7.815
7.405
7.265
7.455
7.740
7.555
7.265
7.610
7.605
7.260
7.295
7.470
7.345
8.000
7.340
7.325
7.605
7.725
7.480
7.720
7.370
7.655
7.815
7.345
7.295
7.140
7.670
7.805
7.025
7.165
7.410
7.605
7.435
6.945
7.030
7.065
7.375
7.515
7.285
7.245
6.710
7.025
7.225
7.000
7.090
6.595
6.990
6.825
6.650
6.865
7.230
6.645
6.735
6.555
7.050
6.360
6.465
6.435
6.405
6.465
6.310
6.190
6.310
6.055
6.045
6.255
6.120
5.440
5.625
5.260
5.625
5.855
5.595
5.000
5.090
5.380
5.220
5.325
5.165
5.000
5.070
5.130
5.065
5.065
5.000
5.000
4.830
5.000
5.000
4.910
5.000
4.830
5.065
5.000
4.825
5.000
5.000
4.845
4.740
5.000
4.845
4.830
5.000
4.545
4.530
4.650
4.625
4.655
4.590
4.560
4.485
4.650
4.465
4.530
4.445
4.455
4.605
4.475
4.050
4.265
4.210
4.195
4.360
3.975
3.920
4.000
3.895
4.050
3.935
3.695
4.000
3.970
4.110
4.000
3.910
4.140
3.730
4.000
3.860
3.880
4.000
3.900
3.710
3.830
3.975
4.065
3.915
3.555
3.895
3.910
4.000
4.000
3.830
3.670
3.390
3.675
3.920
3.550
3.880
3.740
3.620
3.555
3.735
3.740
3.730
3.455
3.470
3.660
3.675
3.260
3.460
3.755
3.655
3.685
3.735
3.400
3.665
3.560
3.685
3.700
3.745
3.110
3.610
3.395
3.620
3.910
3.715
3.535
3.390
3.650
3.655
3.475
3.675
3.815
3.745
3.530
3.480
3.530
3.435
3.335
3.530
3.600
3.200
3.500
3.395
3.330
3.285
3.315
3.680
3.420
3.260
2.975
3.430
3.230
3.470
3.590
3.105
2.970
3.420
3.195
3.000
3.105
3.365
3.190
3.055
3.015
3.240
3.015
3.280
3.425
3.135
2.820
2.695
3.090
3.305
3.370
2.960
2.890
3.315
2.665
3.095
3.580
3.015
2.430
3.025
2.395
2.925
3.285
2.830
2.650
2.720
2.460
2.855
2.910
2.970
2.580
2.735
2.995
2.455
2.885
2.530
2.600
2.610
3.000
3.015
2.690
2.450
2.380
2.290
3.195
2.655
2.310
2.150
2.755
2.590
2.105
2.230
2.410
2.305
2.255
2.450
2.190
2.305
2.065
2.130
2.380
2.330
2.140
2.155
2.230
2.185
2.105
2.165
2.140
2.065
2.090
2.065
2.135
2.000
2.165
2.065
2.140
2.065
2.135
2.000
2.000
2.065
2.000
2.000
1.935
2.000
2.065
2.000
2.135
1.925
2.120
2.065
1.865
1.935
2.000
1.860
1.835
2.000
1.985
2.000
1.745
2.000
1.925
2.000
1.985
1.775
1.925
2.000
2.120
1.910
1.830
2.000
2.000
1.910
2.000
1.860
1.765
1.775
1.830
1.760
1.830
1.705
2.000
1.635
1.865
2.135
1.910
1.910
2.000
1.605
1.985
1.730
1.840
1.605
1.880
1.925
1.865
1.815
1.635
1.860
1.780
1.605
1.615
1.915
2.000
1.740
1.555
1.640
1.670
1.925
1.760
1.500
1.580
1.405
1.775
1.665
1.455
1.365
1.680
2.000
1.500
1.545
1.575
1.810
1.710
1.735
1.355
1.420
1.920
1.740
