I [a.u.]
6.765
6.750
7.070
7.160
7.425
7.440
7.710
7.910
7.865
7.990
8.135
8.080
8.330
8.080
8.885
8.680
9.205
9.300
9.280
9.370
9.885
10.410
10.265
10.340
10.670
10.745
10.800
11.365
11.350
11.705
11.930
12.175
11.920
12.420
12.665
13.105
13.340
13.795
13.740
14.270
14.690
15.105
15.340
16.065
16.570
17.405
18.000
18.830
19.740
20.075
21.000
21.455
23.620
24.355
25.470
26.985
28.145
29.175
30.360
31.330
32.900
33.670
34.100
35.510
36.280
36.820
37.230
38.125
39.275
39.780
40.290
40.925
41.910
42.690
43.230
43.895
43.940
44.195
44.840
45.495
45.965
46.360
46.525
47.105
47.750
48.260
48.365
49.150
49.445
50.000
50.555
51.055
51.655
52.405
52.865
53.380
55.385
55.975
56.030
57.205
58.705
60.070
60.920
61.895
62.940
64.010
65.250
66.335
67.455
68.580
69.060
71.150
71.820
73.125
73.825
73.615
74.750
75.465
76.495
77.455
78.635
79.460
79.850
81.920
83.315
84.725
85.000
85.320
86.500
87.625
87.690
88.380
88.795
89.810
90.125
90.885
90.690
91.225
91.540
91.240
91.955
91.800
92.085
91.760
91.795
91.295
91.425
91.435
90.690
90.480
90.300
89.335
89.025
88.865
88.560
88.200
88.475
87.765
87.125
86.980
85.920
85.060
84.795
84.200
84.235
84.050
83.145
82.685
82.180
82.030
82.000
81.505
81.095
80.645
80.310
79.610
79.215
79.295
79.490
78.520
78.205
77.895
77.775
77.450
78.330
77.270
77.460
77.520
78.625
79.405
78.960
79.235
79.865
80.305
80.270
80.440
80.905
81.100
81.805
82.000
82.100
83.365
83.365
83.755
84.290
84.750
85.000
85.440
85.900
87.405
87.450
88.090
88.375
89.265
90.055
90.200
90.695
91.555
91.890
92.545
92.860
93.550
93.360
93.715
94.310
94.450
95.310
95.350
95.475
95.490
95.760
95.545
95.850
96.090
95.740
95.325
95.025
95.020
94.555
94.390
93.800
93.340
93.095
92.765
92.045
91.580
90.825
90.265
89.185
88.425
88.090
87.535
87.070
85.540
84.780
84.895
83.975
83.305
82.560
81.975
81.170
80.475
79.350
79.115
78.030
77.575
76.970
76.050
75.290
74.540
73.860
73.035
72.260
71.625
71.320
70.980
69.980
69.000
68.195
68.030
67.750
66.765
66.580
66.000
65.905
65.275
64.590
64.135
63.910
63.090
63.240
63.170
62.615
62.215
62.170
61.740
61.580
61.590
61.260
61.085
60.780
60.620
60.695
60.670
60.500
60.320
60.490
60.320
60.255
60.590
60.660
60.345
60.720
60.185
60.975
60.670
60.835
60.445
60.975
61.000
61.065
61.535
61.000
61.165
61.535
61.460
61.560
61.755
62.170
62.180
62.170
62.440
62.200
62.500
62.340
62.805
62.385
62.550
62.540
62.780
63.195
63.155
62.835
63.000
63.000
62.685
62.415
62.260
62.555
61.850
62.040
61.460
61.335
61.355
61.145
60.605
60.130
60.000
59.890
59.320
59.005
58.450
57.545
56.535
56.080
56.000
55.295
54.325
54.470
53.270
53.430
53.000
52.685
52.000
51.280
50.660
50.500
49.865
49.410
48.345
47.950
47.565
46.710
46.165
45.220
44.740
44.180
43.365
43.000
42.200
41.200
40.975
40.095
39.695
38.855
38.130
37.220
36.965
36.750
36.540
35.830
35.650
34.635
34.025
34.000
33.680
33.115
32.350
32.080
31.545
31.135
30.695
30.415
30.130
29.710
29.405
28.935
28.665
28.605
28.135
27.885
27.160
27.345
26.870
26.025
26.030
25.410
25.470
25.630
24.715
24.120
24.575
24.090
23.685
23.970
23.630
23.515
23.015
23.215
22.285
22.175
21.970
21.580
21.225
21.435
21.000
21.250
20.865
20.750
21.000
20.895
20.975
20.385
20.260
20.330
20.030
19.850
19.780
19.670
19.150
19.095
19.505
18.875
19.175
18.685
19.165
18.600
18.385
18.250
18.215
18.535
18.580
18.320
18.220
18.135
18.065
17.780
18.080
18.220
17.850
17.755
17.630
17.775
17.525
17.380
17.255
17.295
16.970
16.780
16.515
16.665
17.165
16.620
16.295
16.635
16.315
16.045
15.785
16.085
15.840
15.700
15.465
15.430
15.560
15.645
15.225
14.830
15.105
14.765
14.695
14.480
14.395
14.155
14.070
13.715
13.625
13.460
13.615
13.370
13.230
13.070
12.930
12.885
12.865
12.775
12.710
12.335
12.355
12.485
12.170
11.990
11.880
11.830
11.750
11.485
11.285
11.000
10.910
10.715
10.675
10.465
10.620
10.325
10.405
10.180
10.320
10.320
10.050
10.140
10.515
10.135
9.545
9.830
9.250
9.305
9.240
9.270
8.965
8.830
9.120
9.130
8.735
9.135
8.825
9.065
8.505
8.525
8.505
8.355
8.520
8.570
8.240
8.335
8.200
8.160
8.000
8.030
8.165
8.030
8.030
8.070
8.250
8.080
8.170
8.000
8.000
7.690
8.070
8.130
8.000
7.870
8.000
7.890
7.920
7.930
7.870
8.000
8.050
8.000
7.975
8.000
7.870
8.000
7.920
7.975
7.515
7.910
7.870
7.715
7.680
7.820
7.795
7.750
8.000
7.820
7.440
7.740
7.715
7.715
7.840
7.710
7.870
7.720
7.865
7.820
7.830
7.920
7.970
7.815
7.885
7.840
7.870
7.920
7.885
7.820
7.570
7.750
7.870
7.600
7.570
7.580
7.540
7.775
8.065
7.820
7.830
7.775
8.090
7.865
7.595
7.570
7.830
7.875
7.550
7.850
7.530
7.610
7.830
7.590
7.405
7.755
7.620
7.650
7.830
7.470
7.315
7.795
7.625
7.250
7.520
7.760
7.660
7.860
7.280
7.415
7.505
7.715
7.220
7.455
7.135
7.215
7.795
7.580
6.990
7.045
6.955
7.135
7.205
6.635
6.775
6.875
7.185
7.040
7.145
6.430
6.955
7.170
6.910
6.865
6.360
6.415
6.545
6.385
6.100
6.010
5.775
6.020
6.285
6.300
5.560
5.815
5.565
5.200
5.870
6.230
5.590
5.225
5.295
5.240
5.770
5.565
5.070
5.295
5.000
5.220
5.130
5.310
5.135
5.060
5.135
5.000
5.000
5.090
5.090
4.910
4.910
5.030
5.000
4.970
4.910
4.850
4.820
4.910
5.000
4.820
5.000
5.000
4.870
5.000
4.700
5.000
4.820
4.910
4.830
5.000
5.000
4.930
4.740
4.820
4.910
4.840
4.615
4.695
4.970
4.730
5.000
4.930
4.680
4.640
4.400
4.795
4.670
4.645
4.290
4.630
4.565
4.630
4.640
4.260
4.540
4.585
4.840
4.325
4.590
4.440
4.500
4.865
4.465
4.530
4.555
4.485
4.615
4.495
4.470
4.555
4.400
4.395
4.455
4.540
4.280
4.290
4.580
4.710
4.280
4.325
4.460
4.460
4.450
4.465
4.460
4.375
4.495
4.135
4.450
4.865
4.600
4.345
4.335
4.305
4.565
4.605
4.490
4.550
4.615
4.430
4.470
4.325
4.535
4.410
4.635
4.545
4.665
4.270
4.235
4.575
4.530
4.280
4.450
4.570
4.710
4.455
4.635
4.620
4.385
4.365
4.740
4.565
4.235
4.575
4.800
4.540
4.555
4.400
4.285
4.760
4.590
4.205
4.430
4.720
4.540
4.410
4.435
4.450
4.590
4.585
4.160
4.335
4.295
4.600
4.500
4.705
4.180
4.320
4.460
4.480
4.535
4.370
4.430
4.285
4.555
4.295
4.335
4.650
4.670
4.190
4.250
4.390
4.415
4.375
4.395
4.380
4.315
4.440
4.295
4.375
4.705
4.160
4.025
4.580
4.250
4.295
4.180
4.210
4.160
4.295
4.105
4.180
4.070
3.950
4.025
4.285
4.245
4.025
4.000
4.000
4.195
4.325
4.030
4.115
4.065
3.910
4.000
4.115
4.090
4.115
4.055
3.910
3.785
3.830
4.000
3.850
3.885
3.910
4.000
3.820
3.530
3.820
3.635
3.750
3.680
3.840
3.730
3.910
3.730
3.475
3.440
3.810
3.430
3.295
3.680
3.135
3.655
3.470
3.520
3.110
3.505
3.340
3.375
3.360
3.500
3.040
3.445
3.155
3.100
3.195
3.215
2.810
3.235
3.285
3.010
2.935
3.335
2.930
2.920
2.855
2.700
2.835
3.170
2.775
2.830
2.525
2.970
2.505
3.055
2.940
3.035
2.885
3.035
2.610
2.610
2.925
2.865
2.525
2.410
2.575
2.790
2.920
3.050
2.645
2.470
2.460
2.315
2.880
2.465
2.390
2.905
2.590
2.285
2.295
2.635
2.565
2.685
2.335
2.400
2.310
2.555
2.735
2.565
2.205
2.250
2.240
2.430
2.295
2.180
