I [a.u.]
5.180
5.085
5.000
5.870
6.205
6.865
6.795
6.905
6.815
7.095
7.780
7.780
7.800
8.000
8.000
8.095
8.710
8.535
8.865
9.180
9.495
10.000
10.725
10.620
10.960
11.575
11.690
12.000
12.485
13.395
13.000
13.865
14.125
14.415
15.000
15.665
16.170
16.780
17.560
17.910
18.215
19.395
19.865
20.450
21.000
21.000
21.935
23.180
24.180
24.510
25.300
25.910
27.310
27.865
28.650
29.110
29.595
30.395
30.735
31.285
31.775
31.960
32.285
32.780
33.005
33.375
33.635
33.690
34.000
34.000
34.270
34.365
34.680
34.595
34.845
35.490
35.705
35.960
36.595
36.350
36.800
37.000
37.190
37.275
38.285
38.650
39.400
40.000
40.310
40.755
41.260
42.225
42.750
43.575
44.575
44.775
45.575
46.690
47.470
48.875
49.665
50.185
50.790
51.865
52.750
53.430
55.095
56.000
56.395
57.210
58.715
59.780
60.880
61.940
62.545
62.310
62.535
63.435
64.575
65.490
66.490
67.640
67.865
68.530
70.235
70.860
71.730
72.395
72.910
73.395
74.305
74.885
75.140
75.665
76.295
76.180
76.500
76.670
76.870
76.775
76.950
77.395
77.195
76.870
77.140
76.795
76.490
75.575
75.305
75.205
74.865
74.310
74.175
73.670
73.445
72.870
72.395
72.095
72.095
71.665
71.120
69.885
69.755
69.000
69.000
68.865
68.395
68.005
68.000
67.395
66.870
66.395
66.085
66.310
66.215
65.310
65.395
65.195
65.285
64.905
64.110
63.630
63.905
63.665
64.085
63.805
64.140
64.515
65.085
65.310
65.110
65.005
65.710
65.485
65.910
65.960
66.095
66.360
66.895
67.045
67.395
68.310
68.095
68.775
68.910
69.085
69.620
70.285
71.215
71.395
72.005
72.090
72.775
73.305
73.395
74.395
74.885
75.355
75.600
76.160
76.270
76.910
77.095
77.855
78.020
78.020
78.080
78.310
78.890
79.000
79.020
79.490
79.595
79.575
79.810
79.550
79.260
79.745
79.300
79.610
79.050
78.870
78.710
78.215
78.060
77.595
77.275
77.175
76.665
76.310
75.575
75.195
75.095
74.405
73.895
73.080
72.310
72.000
71.580
71.080
70.730
69.190
68.800
68.395
68.095
67.800
67.085
66.295
66.000
65.575
64.940
64.585
63.835
63.215
63.180
62.310
62.215
61.490
60.395
60.395
60.000
59.575
58.890
58.575
58.285
57.810
57.575
56.885
56.680
56.490
56.095
56.310
56.000
55.800
55.575
55.910
55.510
55.310
55.395
55.085
55.095
55.040
55.215
55.000
54.815
55.000
55.000
54.540
55.005
55.095
55.095
54.915
55.575
55.490
55.775
55.685
55.625
55.575
55.690
55.800
56.310
56.315
56.300
56.595
56.650
56.760
57.045
57.485
57.710
57.490
57.910
58.395
58.560
58.925
59.080
58.665
59.170
59.625
59.690
59.960
60.280
59.865
59.785
60.085
60.490
60.310
60.220
60.085
59.930
59.930
60.215
59.895
60.085
59.690
59.665
59.865
59.395
59.575
58.780
58.685
58.395
58.110
56.625
56.310
56.095
55.865
55.665
55.775
55.310
55.085
55.310
54.190
54.285
53.600
53.000
52.910
52.730
52.095
51.780
51.710
50.275
50.215
50.000
49.380
48.915
48.490
48.075
47.395
46.620
46.515
45.685
45.095
45.000
44.500
44.300
43.665
43.310
42.775
42.500
41.775
41.225
41.125
40.390
40.000
40.000
39.910
39.135
38.890
38.910
37.325
37.180
37.085
37.000
37.000
37.000
37.000
36.380
36.730
36.215
36.215
36.000
35.690
35.800
35.510
35.310
35.180
35.000
34.395
34.315
34.575
34.780
34.395
34.000
34.000
34.095
34.000
34.000
34.000
34.000
33.800
34.000
34.000
33.800
34.000
33.395
33.575
33.270
33.550
33.715
33.910
33.350
33.285
33.730
33.800
33.800
33.865
33.730
33.730
33.575
33.775
34.000
34.000
34.000
33.775
34.180
34.000
34.275
34.000
34.000
34.480
34.385
34.530
34.095
34.485
34.575
35.305
34.620
34.910
35.080
35.275
34.865
35.215
35.350
35.000
34.830
34.710
34.820
34.865
34.530
34.485
34.230
34.395
34.000
34.085
34.085
34.000
34.180
34.135
34.000
34.215
34.000
34.000
33.710
33.865
33.395
33.215
33.265
32.785
32.870
32.635
32.215
31.915
31.300
31.350
31.215
31.160
31.000
30.610
30.085
30.230
30.000
29.485
29.095
28.800
29.000
28.825
28.350
27.800
27.865
27.405
27.270
27.045
26.730
26.315
26.180
25.270
24.305
24.000
24.000
23.910
24.000
23.710
24.000
23.865
23.865
23.825
23.215
23.230
23.335
22.165
21.960
21.580
21.180
21.000
21.000
21.000
21.000
21.000
21.000
20.780
20.710
20.690
20.180
20.135
20.215
19.865
20.000
19.865
19.400
19.585
19.450
19.000
18.915
18.920
18.625
18.935
18.860
18.400
18.320
18.175
18.090
18.350
18.500
18.000
18.000
18.000
18.135
18.000
17.865
17.910
18.000
18.000
17.800
18.000
17.680
17.775
17.800
17.620
18.000
17.815
17.825
17.605
17.800
17.705
17.470
17.495
17.705
16.910
17.215
17.735
17.185
17.770
17.560
17.200
16.895
17.570
17.915
17.685
17.470
17.315
16.885
17.425
17.725
17.725
17.335
17.000
17.365
17.705
17.425
17.310
17.440
17.400
17.275
17.910
17.615
17.305
17.420
17.000
17.305
17.415
17.125
16.605
16.695
17.090
17.290
17.350
17.305
17.300
17.405
17.400
17.000
17.110
17.200
17.485
17.000
17.180
17.050
16.910
16.560
16.650
16.735
16.915
16.820
16.730
16.470
16.560
16.405
16.090
16.265
16.200
16.130
16.125
16.085
16.000
16.000
15.820
16.000
15.775
15.825
15.705
15.625
15.420
15.000
15.085
15.225
15.000
15.000
14.905
14.915
14.865
14.450
14.905
14.390
14.570
14.000
14.000
14.000
14.000
13.825
13.685
13.215
13.215
13.275
13.310
13.000
13.000
13.000
12.380
12.785
12.685
12.000
12.000
12.095
12.310
12.285
12.085
11.800
11.905
11.485
11.530
11.405
11.215
10.915
11.185
10.915
10.910
10.615
10.800
10.565
10.315
10.200
9.820
10.000
10.085
9.865
9.665
9.820
9.310
9.230
9.800
9.465
9.000
9.200
9.000
8.860
9.190
8.915
8.600
8.820
8.385
8.560
8.530
8.215
8.215
8.565
8.000
8.000
8.000
8.000
8.215
8.000
8.000
8.000
8.000
8.000
8.000
7.625
8.000
7.825
7.710
8.000
7.780
7.565
7.735
7.865
7.820
7.315
7.495
7.600
7.595
7.265
7.000
7.365
7.315
7.230
7.265
7.135
7.000
7.200
7.335
7.320
7.270
7.090
7.180
7.000
7.000
7.335
7.000
7.000
6.830
7.000
6.990
6.705
7.000
6.595
7.000
6.550
7.180
6.785
6.905
6.770
6.510
6.570
7.000
6.915
6.375
6.865
6.905
6.685
6.585
6.335
6.865
6.825
6.580
6.735
6.615
5.920
6.125
6.730
6.560
6.465
6.740
5.935
6.395
7.000
5.895
6.250
5.845
5.815
6.550
6.265
5.910
6.640
5.875
5.360
6.605
6.590
5.805
5.995
5.580
5.840
5.955
5.930
5.545
5.430
5.390
5.460
6.055
5.650
5.650
5.265
5.180
5.800
5.780
5.510
5.465
5.275
5.485
5.515
5.430
5.535
5.090
5.215
5.215
5.310
5.565
5.000
5.180
5.000
5.215
5.000
5.000
5.000
5.285
5.000
5.000
5.000
5.000
5.000
5.000
5.400
5.000
5.000
4.800
5.000
5.200
5.000
5.000
5.000
5.000
5.000
5.000
5.000
5.000
5.000
5.000
5.000
5.000
5.000
5.000
4.800
5.000
4.815
5.000
5.000
4.800
5.000
4.600
4.800
5.000
4.905
4.730
4.800
4.520
4.095
4.505
4.725
4.270
4.360
4.315
4.820
4.290
4.510
4.395
4.085
4.200
4.375
4.215
4.290
4.085
3.935
4.000
4.000
4.000
4.000
4.095
4.135
4.000
3.905
3.725
3.820
4.000
4.000
3.820
3.770
3.665
3.770
3.780
3.825
4.000
3.905
3.690
3.725
3.390
3.445
3.650
3.770
3.915
3.220
3.290
3.350
3.485
3.270
3.380
3.405
2.820
2.955
3.425
3.865
3.580
2.625
3.225
3.275
2.815
2.990
3.185
3.180
3.090
3.085
2.915
3.000
3.090
3.000
2.785
2.800
2.910
2.605
3.000
2.700
2.960
2.915
3.000
2.950
2.565
2.295
2.605
2.315
2.815
2.675
2.780
2.650
2.380
2.580
2.720
2.290
2.365
2.360
2.435
2.380
2.560
2.485
2.410
2.095
2.180
