I [a.u.]
9.890
10.890
11.185
11.110
11.560
12.405
12.605
13.205
13.925
14.305
14.915
15.285
16.010
16.985
17.305
18.000
18.695
19.445
20.000
20.915
21.430
21.425
23.100
23.925
24.940
25.815
26.535
27.760
28.545
29.240
30.205
30.945
32.315
33.215
34.000
34.360
35.480
36.600
37.000
37.340
38.890
39.730
40.200
41.030
41.710
42.630
43.455
44.060
44.425
45.185
45.500
46.360
46.985
47.495
47.470
47.905
48.290
48.305
48.880
49.445
49.465
49.925
49.890
49.925
50.000
50.200
50.610
50.325
51.125
50.630
51.110
51.915
52.150
51.885
51.915
52.000
52.425
53.000
52.815
53.200
53.220
53.290
53.730
55.170
55.345
55.515
55.400
55.760
56.110
57.470
58.000
58.565
59.240
60.120
60.890
61.640
62.480
63.080
64.410
65.010
66.240
66.845
68.170
68.760
70.660
71.685
72.600
73.805
74.730
76.000
76.830
78.515
79.455
80.635
81.160
81.495
81.815
82.395
83.805
84.285
85.000
86.800
87.315
88.685
90.565
91.720
92.840
93.275
93.750
94.240
94.880
95.530
96.440
97.125
96.805
97.770
97.915
97.685
97.805
97.765
97.760
97.760
97.800
97.255
97.310
97.355
96.815
95.450
95.000
94.800
93.770
93.890
93.295
92.770
92.000
91.845
91.590
91.000
90.365
89.745
89.165
88.160
88.000
87.285
87.000
87.000
85.200
85.000
84.725
84.515
84.120
84.000
83.695
83.335
83.365
83.335
82.230
81.890
82.200
82.085
81.520
81.295
80.515
80.915
81.505
81.685
81.530
82.000
82.000
82.525
83.120
83.005
83.325
84.210
84.000
84.530
85.000
85.000
85.000
85.660
86.345
87.550
88.170
88.455
88.680
89.655
90.610
91.110
92.120
92.375
92.890
93.610
94.040
94.840
95.400
96.085
96.590
97.380
98.000
98.195
98.760
99.800
100.000
100.095
100.600
100.880
101.090
101.170
101.860
101.880
102.370
102.860
102.595
101.805
102.780
102.760
102.050
101.340
101.450
101.400
101.340
101.000
100.720
100.565
99.650
99.215
98.795
98.000
97.890
97.555
96.685
95.805
95.480
94.480
93.330
93.200
92.085
91.920
91.075
90.285
88.925
88.075
87.525
86.830
86.280
84.760
84.390
83.625
83.410
82.640
82.000
81.685
80.650
79.650
79.200
78.740
78.310
78.000
76.890
76.285
75.565
75.085
75.205
74.170
73.890
73.155
73.045
72.870
72.000
71.990
71.450
71.815
71.720
71.805
71.200
71.030
70.710
71.000
70.830
70.660
71.070
70.920
70.280
70.520
70.915
70.980
71.000
71.000
70.760
71.160
71.360
71.440
71.745
71.815
71.575
71.800
72.440
72.200
72.685
72.590
72.570
73.605
73.880
73.880
73.450
74.240
74.425
75.610
75.685
75.390
75.440
76.000
76.000
76.800
76.830
77.360
77.120
77.200
77.805
78.055
78.515
78.600
78.660
78.285
78.635
78.440
78.795
78.405
78.685
78.800
78.270
78.450
78.490
78.200
78.245
77.790
77.515
77.365
77.360
77.405
76.925
76.000
75.085
74.955
74.320
73.760
73.795
72.775
72.200
72.170
72.240
71.880
71.640
71.530
70.120
69.680
69.000
69.000
68.485
67.890
67.210
66.320
66.130
65.640
65.120
64.315
63.600
63.365
62.595
61.915
61.035
60.605
60.285
59.725
58.555
58.400
57.930
56.920
56.530
56.170
55.805
55.000
55.200
54.060
53.340
53.000
53.240
52.590
52.670
52.275
51.800
51.915
51.200
51.000
50.840
50.200
50.360
50.170
49.880
49.880
49.450
49.565
48.880
49.165
48.725
48.600
47.765
48.325
48.060
47.650
47.760
47.800
47.270
47.590
47.530
47.410
47.410
47.635
47.430
46.960
47.045
47.315
47.285
47.005
47.200
47.130
47.360
47.000
47.085
47.085
46.835
47.255
47.130
46.960
47.275
47.425
47.075
47.690
47.440
47.805
47.390
47.630
47.650
47.965
47.880
48.500
48.605
48.350
49.200
49.000
49.685
49.755
49.565
49.350
50.000
50.000
50.000
50.000
50.200
49.830
50.000
50.000
50.000
50.445
50.440
50.000
49.760
50.200
49.760
49.800
49.890
49.755
49.760
49.450
49.480
48.680
49.130
49.440
49.745
49.245
48.890
48.805
48.695
48.440
48.110
47.760
48.120
47.205
47.215
46.635
46.110
46.085
45.400
45.360
45.010
44.810
44.730
44.235
44.280
44.090
43.120
42.905
42.445
42.160
42.005
41.410
40.920
40.505
40.000
39.830
39.755
39.165
39.375
38.360
37.645
37.080
36.320
36.090
35.080
34.495
34.000
33.915
34.000
34.775
34.925
34.555
34.160
34.000
34.000
33.815
33.640
32.835
32.265
32.365
31.830
31.695
31.480
31.000
30.995
31.365
31.030
30.895
30.490
30.355
30.280
30.040
29.925
29.600
29.520
29.195
29.405
29.135
28.405
28.575
28.435
28.450
28.565
28.040
27.640
27.675
27.880
28.085
27.685
27.310
27.355
27.040
27.565
27.650
27.375
27.005
27.050
27.170
27.285
27.280
26.750
26.720
26.965
27.455
27.005
26.535
26.195
26.195
26.610
26.915
26.430
26.200
26.800
26.315
26.205
26.200
26.320
26.495
26.495
26.440
26.305
26.480
26.645
26.650
26.530
26.635
26.445
26.475
26.350
26.240
27.000
26.830
26.680
26.495
26.830
26.920
26.830
26.880
26.525
26.880
26.720
26.875
26.585
26.435
26.405
26.405
26.030
26.265
25.835
26.305
26.640
26.650
26.440
26.470
26.585
26.790
26.760
26.565
26.835
26.585
26.895
26.410
26.665
26.635
26.210
26.360
26.470
26.320
26.040
25.940
26.200
25.515
25.575
25.755
25.480
24.885
25.195
25.470
24.840
25.000
24.725
24.530
25.075
24.825
24.355
24.390
24.000
24.010
24.120
24.310
23.755
23.645
23.805
23.650
23.735
23.830
23.410
22.740
23.070
22.060
22.160
22.515
21.730
21.170
21.110
21.110
21.205
21.000
21.000
20.925
21.000
20.770
20.800
20.465
20.445
20.200
20.080
19.735
19.455
19.640
19.505
19.165
18.860
18.450
18.205
18.765
18.245
18.075
18.290
18.000
17.810
17.880
17.670
17.605
17.375
17.320
16.935
17.000
16.710
16.670
16.120
16.605
16.110
16.150
16.235
16.020
15.990
15.235
15.310
15.520
15.120
15.160
14.795
15.085
14.890
14.755
14.670
14.435
14.520
14.340
14.495
14.320
14.195
13.830
13.760
13.600
13.685
13.600
13.715
13.400
13.355
13.675
13.120
13.120
13.120
13.050
13.245
13.120
12.915
12.720
12.805
13.000
12.510
12.660
12.575
12.805
12.370
12.425
12.635
12.255
12.530
12.480
12.170
12.080
12.670
12.475
12.000
11.915
12.160
11.880
12.085
12.370
11.885
11.890
11.920
12.095
12.280
12.025
11.845
11.770
11.890
11.610
11.830
12.200
12.000
11.610
11.530
11.565
11.915
12.230
12.000
11.410
11.675
11.720
11.650
11.845
11.880
11.720
11.570
11.610
11.650
11.725
11.755
11.615
11.870
11.920
11.560
11.590
11.805
11.525
11.650
11.750
11.810
11.630
11.875
11.610
11.685
11.665
11.855
11.675
11.725
11.710
11.605
11.320
11.800
11.590
11.675
11.680
11.365
11.805
11.450
11.805
11.530
11.195
11.275
11.700
11.330
11.365
11.435
11.115
11.395
11.635
11.445
11.560
11.200
11.080
11.320
11.520
10.990
11.280
11.325
11.090
11.295
11.065
11.080
11.255
10.875
11.000
11.210
10.840
10.755
10.795
10.900
10.845
10.900
10.810
10.795
10.395
10.635
10.395
10.085
10.440
10.715
10.370
10.405
10.490
9.975
9.845
9.715
10.170
9.695
10.000
9.975
9.720
9.670
10.000
9.415
9.575
9.275
9.710
9.530
8.960
9.275
9.080
8.615
8.775
9.000
8.865
9.200
8.755
8.435
8.555
8.445
8.650
8.365
8.205
8.230
8.075
8.235
8.120
8.120
8.365
8.000
8.075
8.045
8.000
7.880
8.000
8.000
7.755
7.840
7.750
7.880
7.630
7.770
7.685
7.490
7.640
7.265
7.075
7.220
7.135
7.370
7.110
7.110
6.695
7.170
6.840
6.915
7.035
6.925
6.780
6.260
6.725
6.680
6.020
6.055
6.255
6.095
6.010
6.395
5.370
5.610
6.260
5.560
5.440
5.770
5.420
5.160
5.490
5.700
5.170
5.490
5.000
5.275
5.200
5.170
5.170
5.170
5.170
5.190
5.340
5.000
5.000
5.085
5.170
5.120
5.000
5.150
5.000
5.010
5.085
5.000
5.000
5.075
5.285
4.840
4.925
5.000
4.830
5.000
4.920
5.000
4.830
4.745
5.000
4.880
5.000
4.925
4.745
