I [a.u.]
7.790
7.245
7.390
8.000
8.000
8.060
8.120
8.000
8.125
8.495
9.000
8.870
9.330
9.305
9.625
9.885
10.065
10.220
10.450
10.850
10.920
10.860
11.370
11.550
11.430
11.835
11.630
12.070
12.505
12.830
12.555
12.850
13.080
13.280
13.880
13.975
14.495
14.965
15.110
15.165
16.000
16.595
16.635
17.675
17.960
18.245
19.025
20.080
20.755
21.080
22.260
24.000
24.825
26.320
27.465
28.630
29.855
31.245
32.595
34.040
35.435
36.165
36.875
37.160
39.090
40.165
40.850
41.995
42.915
43.490
44.495
45.245
45.955
46.835
47.495
47.610
48.470
49.040
49.830
50.000
50.120
50.665
51.155
52.125
52.305
52.670
52.985
53.125
54.310
55.205
55.875
56.015
56.570
57.725
58.600
59.450
60.695
61.325
62.165
63.575
64.510
65.660
66.900
68.085
69.000
70.355
71.575
72.125
73.650
75.425
76.220
77.635
79.200
80.375
81.210
81.210
81.830
82.335
84.015
84.915
86.350
87.835
88.575
90.195
92.415
93.095
93.875
95.040
95.750
96.980
97.780
98.080
98.490
99.575
100.230
100.495
100.455
100.795
100.755
101.000
101.500
101.375
101.495
101.505
101.325
101.660
101.200
100.535
100.655
100.530
100.495
100.125
99.790
99.410
98.780
98.780
98.345
97.900
97.835
97.255
96.655
95.790
95.575
94.930
94.040
93.875
93.160
92.980
92.260
91.575
91.780
91.495
90.370
89.815
89.995
89.325
88.700
88.405
88.125
87.955
87.575
86.970
86.790
86.880
87.120
87.025
87.195
87.495
88.080
88.035
88.365
88.905
88.860
89.325
89.445
89.905
90.285
90.700
91.200
91.755
92.370
92.545
92.840
93.905
94.285
94.915
95.530
96.125
96.825
97.505
97.880
98.285
99.085
99.590
100.250
101.025
101.475
101.655
102.885
103.655
103.750
104.165
104.780
105.480
105.895
106.020
106.465
107.165
106.985
107.285
107.285
107.515
107.900
107.915
107.585
107.325
107.265
106.900
106.865
106.165
105.540
105.590
104.840
104.240
103.905
103.420
102.400
101.295
101.000
100.410
100.125
99.405
98.125
97.945
97.495
96.285
95.735
94.835
93.700
93.125
92.655
91.780
91.230
90.025
88.670
88.205
87.905
86.585
85.660
85.000
84.530
83.820
83.120
82.220
81.715
81.070
80.070
79.220
78.820
77.780
77.430
76.580
75.930
75.490
75.025
74.500
73.755
73.020
72.220
72.250
71.875
71.610
71.325
70.800
70.430
69.850
69.485
69.160
68.800
68.915
69.000
68.830
68.750
68.330
68.125
68.370
68.000
67.960
67.840
67.920
67.955
67.615
67.630
67.590
67.700
67.695
68.000
67.655
67.505
67.425
67.985
67.625
67.675
67.740
67.985
67.820
67.915
68.000
68.065
67.785
67.915
68.040
67.915
67.875
68.030
68.165
68.095
67.920
68.000
67.960
67.865
67.795
67.795
67.705
67.570
67.025
66.860
66.400
66.120
66.080
65.960
65.610
65.385
65.120
64.875
64.205
63.715
63.345
63.085
62.505
62.245
61.000
60.285
59.495
59.210
58.290
57.980
57.495
56.590
56.205
56.125
55.860
55.040
54.600
53.000
53.000
52.510
52.000
51.355
50.080
49.835
49.710
48.695
48.125
47.370
46.905
45.835
45.325
44.530
44.080
43.655
43.030
42.120
41.460
40.610
40.240
40.000
39.260
38.390
37.935
37.000
36.920
36.835
36.075
35.795
35.585
34.715
34.410
33.920
34.000
33.550
33.040
33.080
32.660
32.205
32.245
31.435
30.835
31.080
30.775
30.325
30.295
29.840
29.415
29.205
29.290
29.085
28.470
28.285
28.130
28.290
28.005
28.000
27.625
27.300
26.840
27.000
26.550
26.880
26.285
26.420
26.290
25.960
25.915
25.615
25.295
25.635
25.505
24.870
25.040
25.010
25.210
24.880
24.490
24.590
24.755
24.655
24.550
24.165
24.290
24.000
24.165
23.960
24.000
24.290
24.330
23.915
24.000
24.250
24.290
24.165
24.165
24.125
24.040
24.080
24.000
24.125
24.085
23.875
24.080
24.120
24.000
23.920
23.670
23.790
23.800
23.630
23.370
23.545
23.120
23.210
22.630
22.955
23.450
22.145
22.615
21.960
21.655
21.710
22.005
21.545
21.535
21.000
21.000
21.040
21.125
20.920
20.960
20.710
21.000
20.750
20.630
20.535
20.300
19.955
20.000
19.955
19.880
19.635
19.500
18.665
18.595
18.430
18.665
18.450
18.365
18.040
17.795
17.920
17.800
17.835
17.540
17.095
17.005
17.025
16.535
15.870
15.635
15.675
15.065
15.000
14.985
14.920
15.305
15.470
14.715
15.165
14.900
14.915
15.000
14.470
13.950
14.080
13.995
13.710
13.550
13.495
13.580
13.675
13.510
13.470
13.585
13.040
13.165
13.125
13.205
13.210
12.960
12.590
12.715
12.785
12.855
12.620
12.775
12.795
12.425
12.325
12.240
12.495
12.080
12.340
12.095
12.045
12.000
12.160
12.000
12.245
12.080
11.840
12.080
11.715
12.085
12.000
11.715
12.125
12.045
11.710
11.915
11.630
11.880
11.900
12.000
11.920
11.790
11.920
11.875
11.915
11.755
11.880
12.000
11.960
11.915
11.915
12.165
12.085
11.960
12.000
11.985
11.775
12.000
12.125
12.290
12.140
12.165
11.945
12.160
12.340
12.140
12.375
12.370
11.985
12.260
12.505
12.260
12.375
12.305
12.200
12.485
12.345
12.095
12.245
12.180
12.000
12.250
12.510
12.840
12.380
12.795
12.180
12.455
12.660
12.965
12.610
12.705
12.505
12.580
13.045
12.865
12.490
12.835
12.490
12.575
12.835
12.710
12.490
12.290
12.410
12.240
12.205
12.410
12.740
12.340
12.600
12.285
12.405
12.700
12.250
12.280
12.180
12.085
12.205
12.210
12.375
12.095
12.290
12.000
12.165
11.835
12.085
12.165
11.915
11.960
11.500
11.875
11.875
11.875
11.380
11.365
11.165
11.715
11.430
11.510
10.975
11.060
11.000
11.085
11.120
10.795
10.835
10.740
10.535
10.040
10.385
10.665
10.165
10.165
10.120
10.040
10.040
10.040
9.715
9.575
9.365
9.570
9.510
9.795
9.135
9.210
9.370
9.005
8.960
9.355
9.245
8.755
8.920
8.715
8.630
8.750
8.450
8.210
8.620
8.205
8.580
8.405
8.080
8.245
8.365
8.245
8.325
8.160
8.040
8.290
8.125
8.045
8.000
7.955
8.000
8.090
7.995
8.085
7.915
8.000
7.800
7.835
8.000
7.915
7.875
7.750
7.545
7.465
7.595
7.920
7.720
7.670
7.530
7.700
7.345
7.515
7.430
7.550
7.245
7.615
7.550
7.755
7.230
7.635
7.410
7.305
7.305
7.375
7.160
7.550
7.165
7.285
7.550
7.435
7.270
7.120
7.120
7.290
7.260
7.210
7.495
7.455
7.660
7.225
7.245
7.170
7.575
7.490
7.205
7.075
7.335
7.460
7.160
7.125
7.120
7.245
7.165
7.260
7.510
7.210
7.370
7.000
7.285
7.370
7.675
7.425
7.165
7.085
7.125
7.220
7.680
7.370
6.820
6.960
7.205
7.345
7.630
7.570
6.915
6.970
7.125
7.700
7.550
7.290
7.165
7.420
7.410
7.175
7.305
7.290
7.250
7.445
7.245
7.370
7.410
7.200
7.285
7.250
7.285
7.245
7.285
7.165
7.125
7.040
6.930
7.365
7.120
7.210
7.330
7.325
7.040
7.405
7.285
7.210
7.100
7.210
7.160
6.935
7.200
7.165
7.340
7.265
7.035
7.260
7.280
7.205
7.085
6.995
7.450
7.315
7.305
6.835
6.950
7.000
6.680
7.130
6.800
6.345
6.900
6.790
6.880
6.305
6.175
6.385
6.735
6.795
6.385
6.285
6.305
6.575
6.060
6.660
6.260
5.975
5.730
5.905
5.490
5.370
6.110
5.860
5.950
5.775
5.285
5.330
5.440
5.345
5.250
5.250
5.250
5.235
5.385
5.370
5.080
5.015
5.000
5.030
5.335
5.000
5.000
5.015
5.000
5.000
5.125
5.080
5.000
5.070
5.080
5.000
5.000
5.000
4.875
4.820
4.755
5.000
4.800
5.000
4.790
4.670
4.630
4.795
4.635
4.835
4.835
4.710
4.695
4.625
4.860
4.505
4.330
4.630
4.490
4.590
4.305
4.405
4.245
4.390
4.210
4.330
4.470
4.370
4.125
4.165
4.100
4.165
4.250
4.000
3.915
4.000
4.085
4.085
4.210
4.125
4.000
4.100
4.085
3.995
4.205
4.000
3.875
3.960
4.000
3.915
3.985
3.840
4.000
3.790
3.915
3.955
3.920
3.825
3.670
3.755
3.670
4.040
3.775
3.630
3.755
3.590
3.835
3.545
3.505
3.670
