I [a.u.]
9.285
9.090
9.195
9.755
10.200
10.240
10.530
11.055
11.000
11.130
11.365
11.725
12.045
12.150
12.495
12.740
12.655
12.870
13.290
13.570
13.740
14.005
13.870
14.475
14.635
14.920
14.870
15.295
15.425
15.915
16.500
16.615
16.840
17.165
17.360
18.000
18.000
18.070
18.920
19.795
19.865
20.495
20.870
21.230
21.945
23.505
24.460
25.570
26.780
28.260
29.425
30.845
32.000
33.865
34.995
36.995
37.430
39.550
40.920
42.930
44.080
45.310
46.795
47.560
49.360
50.000
51.160
52.080
52.915
53.330
55.080
55.865
56.280
56.815
57.950
58.410
59.440
60.055
60.380
60.660
61.790
61.840
62.325
63.245
63.665
64.430
65.170
65.215
66.135
66.580
67.575
68.210
68.805
69.130
71.085
71.795
72.550
73.870
75.200
76.490
77.135
79.165
80.460
81.710
82.885
84.340
85.340
87.340
88.000
89.910
91.715
93.085
94.355
95.640
96.520
96.555
97.915
98.075
99.560
100.670
101.345
103.705
104.295
106.720
108.735
109.565
110.170
111.535
112.160
113.255
113.715
114.870
115.505
115.745
116.545
116.620
116.850
117.000
117.000
117.085
117.230
117.700
117.270
117.395
117.270
117.130
117.005
116.135
115.520
115.225
114.780
114.510
114.145
113.920
113.550
113.225
112.750
112.080
111.720
110.015
109.495
109.000
108.240
108.000
107.625
106.805
105.620
105.250
104.540
104.125
103.845
103.290
102.350
102.005
101.160
101.000
100.285
100.135
100.345
99.485
98.830
98.210
98.240
97.840
98.255
98.260
98.495
98.765
99.260
99.715
100.070
100.365
100.500
100.515
100.920
101.295
101.270
101.855
103.000
103.415
103.965
104.405
104.520
105.855
106.875
107.555
108.165
108.925
109.235
110.085
110.560
111.420
112.010
113.290
113.995
114.265
114.720
115.640
116.220
116.840
117.420
117.460
118.410
119.490
119.435
120.000
120.665
120.670
121.355
121.390
122.130
121.985
121.890
122.005
122.340
122.645
122.130
122.215
121.430
120.835
120.630
120.000
120.000
119.240
118.950
117.840
117.000
116.910
115.935
115.770
114.750
114.130
113.510
112.915
111.840
110.770
110.000
109.455
108.170
107.870
106.840
105.870
104.760
104.320
103.790
102.740
101.520
101.000
100.455
100.165
98.710
98.125
97.835
97.085
96.450
95.080
94.930
93.840
93.290
92.705
92.160
91.440
91.165
90.335
89.475
89.200
88.475
88.160
88.005
87.930
87.470
87.130
87.000
86.645
85.690
85.900
85.860
85.000
85.335
85.080
85.010
85.000
85.480
85.420
85.520
85.160
85.140
85.295
85.710
85.465
85.960
86.700
87.080
87.070
87.000
87.780
87.525
87.790
88.000
88.125
88.000
88.840
89.245
89.400
89.795
90.210
90.290
90.840
91.365
91.335
92.290
92.000
92.160
92.875
93.160
93.460
94.055
93.840
93.710
94.425
95.085
95.195
95.360
95.125
95.260
95.080
95.265
95.205
95.470
94.870
94.755
94.900
95.380
94.870
94.575
93.910
93.830
94.290
93.750
93.085
92.840
92.080
90.890
90.150
89.540
88.790
88.365
88.130
87.625
87.800
87.845
86.840
86.280
85.000
85.000
84.495
83.760
83.570
82.300
82.000
81.505
80.630
79.720
78.605
78.000
77.355
76.790
75.995
75.635
74.290
73.410
72.485
72.160
71.590
71.135
69.440
69.000
68.875
68.005
67.810
66.560
66.210
66.000
65.570
64.760
64.340
63.705
63.285
62.525
62.545
62.000
61.270
61.135
60.785
60.290
60.335
60.130
59.770
59.455
59.000
58.670
58.495
58.415
57.835
57.920
57.390
57.115
56.920
56.830
56.540
56.160
56.260
56.165
56.000
56.080
56.080
56.000
56.000
55.875
55.920
55.840
55.780
55.785
55.685
55.375
55.585
55.410
55.550
55.355
55.080
55.385
55.450
55.915
55.625
55.530
55.930
55.925
55.875
55.840
56.000
56.120
56.050
56.000
56.210
56.295
56.575
56.505
56.920
57.285
57.455
57.715
57.620
58.045
58.360
58.285
58.740
58.870
58.925
58.740
59.130
59.190
59.165
59.400
59.075
59.295
58.870
59.160
59.000
58.610
58.545
58.005
58.090
58.330
58.375
57.645
57.915
57.845
57.950
57.915
57.755
57.415
57.025
56.625
56.290
56.210
56.195
56.000
55.610
55.205
55.195
54.865
54.190
53.270
53.000
53.000
52.915
52.360
52.265
51.985
51.420
50.775
50.240
50.085
49.915
49.545
49.210
48.545
48.005
47.790
47.215
47.135
46.360
46.025
45.435
44.635
43.935
42.970
42.205
41.025
40.530
40.465
40.155
40.335
40.960
40.935
40.485
40.465
40.000
39.915
39.350
39.105
38.095
37.000
36.870
37.000
36.915
36.925
36.085
36.085
36.475
36.185
36.230
35.710
35.245
35.100
35.250
35.045
34.640
34.475
34.000
34.000
34.125
33.870
33.735
33.725
33.365
33.195
33.165
32.900
32.720
32.490
32.790
32.490
32.225
32.085
32.030
31.915
31.925
31.495
31.575
31.335
31.580
31.425
31.080
31.075
31.155
31.060
31.000
31.000
30.835
30.920
31.125
31.000
31.000
31.080
31.125
31.000
31.000
30.920
30.780
31.000
30.785
30.740
30.950
30.945
31.080
30.920
30.920
30.640
30.940
31.065
31.045
30.850
30.840
31.000
31.165
30.985
31.225
31.075
30.920
31.180
31.305
31.310
31.215
31.370
31.210
31.130
31.075
31.355
30.760
30.870
30.700
30.915
30.875
31.000
31.000
31.005
31.655
31.535
31.315
31.165
31.345
31.465
31.240
31.460
31.125
30.840
31.000
31.030
31.050
30.630
30.625
30.785
30.950
30.525
30.420
30.240
30.050
30.155
30.000
29.840
29.865
29.845
29.810
29.705
29.135
29.425
29.610
28.715
29.080
28.915
28.995
28.290
28.455
28.415
28.425
28.000
28.110
28.030
27.845
27.260
27.510
27.380
26.680
26.705
27.010
26.175
26.160
26.005
25.670
25.320
25.290
24.920
24.375
24.740
24.005
23.930
24.085
23.835
23.765
23.215
23.140
22.905
22.845
22.050
21.605
21.635
21.300
21.215
21.335
21.000
20.920
21.000
21.000
20.555
20.835
20.515
20.005
20.005
19.775
19.515
19.365
19.650
19.835
18.810
18.665
18.210
18.630
18.425
18.135
18.220
18.000
18.000
18.080
17.910
17.920
17.625
17.510
17.445
17.165
17.375
17.005
16.705
16.815
16.995
16.865
16.340
16.065
16.090
16.190
16.215
16.355
15.790
15.345
15.235
15.505
15.365
15.255
15.430
15.185
14.845
14.890
15.050
14.840
14.785
14.845
14.920
14.355
14.250
14.300
14.300
14.395
14.125
14.290
14.000
14.130
13.840
14.000
13.930
14.025
13.995
13.920
13.505
13.915
13.430
13.285
13.785
13.910
13.430
13.845
13.565
13.340
13.920
13.920
13.380
13.715
13.200
13.200
13.875
13.910
13.185
13.430
13.265
13.445
13.305
13.325
13.280
13.215
13.080
13.125
13.160
13.420
13.245
12.970
13.135
12.925
13.210
13.495
13.235
12.855
13.125
13.140
13.195
13.160
13.130
13.290
13.120
13.210
13.255
13.405
13.130
13.130
13.195
12.920
13.000
13.080
13.310
12.920
13.000
12.850
12.920
13.000
13.000
12.995
13.000
13.000
12.710
12.835
12.870
12.990
12.915
12.920
12.730
12.800
12.645
12.490
12.575
12.705
12.650
12.795
12.845
12.470
12.485
12.420
12.420
12.710
12.630
12.410
12.670
12.505
12.420
12.695
12.280
12.220
12.365
12.090
12.410
12.265
12.060
12.075
12.155
12.235
12.000
11.780
11.840
11.935
12.050
11.915
11.790
11.655
11.705
11.415
11.755
11.450
11.375
11.450
11.000
11.135
11.000
11.170
11.075
11.005
10.660
11.000
10.710
10.840
10.515
10.790
10.365
10.215
9.860
10.150
10.345
10.220
10.345
9.770
9.540
9.980
9.580
9.505
9.445
9.480
9.665
9.075
8.865
8.920
8.610
9.265
8.770
8.905
9.070
8.755
8.370
8.535
8.340
8.415
8.420
8.355
8.125
8.005
8.135
8.135
7.860
8.000
8.140
7.805
7.570
7.710
8.000
7.875
7.740
7.755
7.590
7.315
7.585
7.395
7.345
7.395
7.195
7.220
7.505
7.340
7.005
7.050
7.000
7.005
6.735
6.615
6.740
6.565
5.990
6.655
6.695
5.910
6.085
6.320
5.940
6.455
6.270
5.890
5.560
5.850
5.555
5.445
5.455
5.160
5.300
5.125
5.440
5.215
5.345
5.305
5.295
5.080
5.000
5.000
5.010
5.135
5.000
5.000
5.000
5.000
5.000
5.000
5.000
5.000
5.000
5.000
5.000
5.000
5.000
4.995
4.840
4.865
