I [a.u.]
3.235
3.415
3.525
3.470
3.695
3.820
3.960
4.165
4.000
4.185
4.150
4.060
4.245
4.500
4.445
4.625
4.780
4.585
4.740
4.600
4.570
5.000
4.860
5.000
5.115
5.000
5.000
5.000
5.075
5.580
5.115
5.180
5.445
5.695
6.260
6.110
6.450
7.000
7.070
7.045
7.375
7.720
8.000
7.685
8.165
8.325
8.595
9.425
9.610
10.300
10.680
10.825
11.235
11.670
12.635
12.985
13.325
14.000
14.540
15.375
15.655
16.085
16.810
17.060
17.540
17.830
18.085
18.470
18.920
18.890
19.370
19.735
19.825
20.180
20.395
20.570
20.595
20.910
20.910
21.045
21.250
21.295
21.290
21.655
22.100
22.240
22.485
22.870
23.030
22.945
23.480
23.810
23.980
24.095
24.350
24.865
25.305
26.110
26.210
26.540
27.055
27.565
28.170
28.730
29.055
29.650
30.435
30.665
31.245
31.615
32.510
32.795
33.460
33.795
34.005
33.820
33.890
34.340
35.030
35.265
36.175
36.380
36.745
37.470
38.165
38.385
38.680
39.440
39.555
39.605
40.030
40.940
41.055
41.095
41.215
41.570
41.550
41.675
41.655
41.895
41.835
42.260
41.735
41.865
41.785
41.840
41.545
41.475
41.270
41.265
41.020
41.240
40.725
40.735
40.220
40.130
40.385
39.940
39.555
39.505
39.160
38.830
38.435
38.320
38.170
37.695
37.405
37.085
36.935
37.070
36.715
36.310
36.305
36.275
36.165
35.645
35.650
35.280
35.350
35.180
35.025
34.700
34.410
34.625
34.865
34.955
34.810
35.025
35.195
35.190
35.050
35.030
35.030
34.915
34.915
35.305
35.475
35.465
36.205
35.945
36.055
36.190
36.115
36.565
36.805
36.975
37.220
37.475
37.400
37.910
38.165
38.330
38.650
38.635
38.940
39.155
39.545
39.805
40.195
40.235
40.705
40.835
40.780
41.165
41.020
41.330
41.445
41.750
42.025
42.075
42.155
41.740
42.110
41.855
42.015
41.935
42.190
41.915
41.570
41.685
41.300
41.490
41.195
41.155
40.915
41.075
40.670
40.290
39.985
39.965
39.445
39.285
38.880
38.550
38.410
38.155
37.750
37.615
36.905
36.575
36.655
36.460
36.080
35.955
35.700
35.230
35.365
34.845
34.700
34.100
34.215
33.920
33.565
33.235
33.100
32.835
32.625
32.005
32.195
31.585
31.145
31.205
31.015
30.465
30.400
30.410
30.055
29.670
29.840
29.665
29.475
29.485
29.375
29.210
29.235
28.780
28.695
28.775
29.090
28.805
28.795
28.815
28.535
28.460
28.710
28.880
28.865
28.370
28.655
28.510
28.540
28.680
29.015
29.015
29.015
28.615
28.705
29.060
29.210
29.260
29.370
29.290
29.380
29.750
29.390
29.505
29.615
29.750
29.900
30.000
30.430
30.295
30.280
30.195
30.420
30.535
30.830
30.970
31.040
30.925
30.835
31.010
30.915
31.230
31.010
31.320
31.130
31.090
30.915
31.110
30.955
30.965
31.310
31.230
30.790
30.595
30.625
30.565
30.615
30.510
30.295
29.790
29.505
29.275
29.145
29.105
28.865
28.975
29.045
28.620
28.670
28.635
28.395
28.230
27.785
27.590
27.410
27.205
26.700
26.615
26.525
26.110
25.715
25.595
25.095
25.340
24.565
24.320
24.185
24.055
24.020
23.415
23.195
23.210
22.800
22.125
22.005
21.345
21.670
21.420
21.210
20.680
21.000
20.755
20.635
20.800
20.390
20.180
20.130
19.555
19.840
19.845
19.400
18.960
19.490
18.955
19.070
18.820
18.825
18.715
18.595
18.520
18.450
18.370
18.285
18.295
18.040
17.995
17.845
18.075
18.190
18.080
17.910
17.860
17.820
17.770
17.890
17.820
17.500
17.690
17.640
17.800
17.575
17.465
17.640
17.530
17.485
17.410
17.580
17.430
17.435
17.580
17.715
17.390
17.040
17.490
17.630
17.625
17.325
17.235
17.410
17.635
17.695
17.625
17.705
17.760
17.605
17.895
17.655
18.210
17.900
17.985
17.965
17.965
18.070
18.120
18.260
18.205
18.185
18.155
18.350
18.460
18.325
18.120
18.250
17.820
18.120
18.045
18.210
17.875
17.705
17.660
18.230
18.100
17.655
17.770
17.890
17.685
17.910
17.705
17.800
17.370
17.410
17.465
17.490
17.490
17.160
17.155
17.120
17.160
16.490
16.795
16.420
16.620
16.390
16.155
15.930
15.730
15.585
16.100
15.790
15.360
15.470
15.105
14.965
15.075
14.910
14.580
14.180
13.970
14.260
14.130
13.885
13.825
13.770
13.075
12.275
12.465
12.915
12.665
12.295
12.500
12.390
12.505
12.355
12.325
12.330
12.185
12.380
12.080
11.805
11.590
11.020
11.345
11.445
11.110
11.215
11.395
11.195
10.855
10.665
10.740
10.955
10.690
10.530
10.500
10.420
10.395
10.295
10.210
10.105
10.330
10.105
9.820
9.875
9.965
9.740
9.710
9.515
9.370
9.500
9.470
9.295
9.500
9.300
9.270
8.995
9.095
9.235
9.350
9.080
9.075
9.130
8.860
9.020
8.935
9.020
8.915
8.800
8.710
9.025
9.025
8.745
8.985
8.875
8.545
8.990
8.890
8.795
9.050
8.690
8.690
8.750
9.050
8.855
8.585
8.850
8.665
9.040
9.015
8.840
8.725
8.605
8.590
8.710
9.145
8.935
9.075
8.595
8.575
8.900
8.925
9.050
8.930
8.825
8.660
8.965
8.885
8.775
8.525
8.470
8.575
8.875
8.875
8.745
8.775
8.990
8.775
8.815
8.970
8.750
8.565
8.710
8.665
8.740
8.530
8.580
8.580
8.710
8.515
8.740
8.675
8.830
8.320
8.400
8.390
8.180
8.445
8.295
8.505
8.460
8.605
8.220
8.345
8.295
8.325
8.110
8.295
8.075
8.210
8.000
8.135
7.895
8.030
8.000
7.865
8.135
7.775
7.665
7.780
7.665
7.525
7.660
7.500
7.690
7.525
7.450
7.470
7.295
7.130
7.190
7.245
7.295
6.765
6.685
6.690
6.700
6.330
6.495
6.320
6.445
6.055
6.235
6.295
5.740
5.620
5.890
5.795
5.785
5.320
5.805
5.450
5.245
5.140
5.135
5.210
5.075
5.000
5.000
5.000
5.075
4.860
5.085
5.000
5.000
4.835
4.860
4.695
4.910
5.000
4.695
4.745
4.695
4.885
4.925
4.920
4.530
4.525
4.605
4.800
4.805
4.500
4.500
4.500
4.445
4.525
4.515
4.375
4.210
4.265
4.235
4.245
4.110
4.195
4.295
4.275
4.070
4.160
3.865
4.250
4.240
4.240
4.075
4.135
3.865
4.175
4.185
4.210
3.905
3.995
4.005
4.075
3.910
4.215
3.855
3.780
3.860
3.975
3.800
3.720
4.000
4.135
3.830
3.920
4.105
3.830
3.615
3.780
3.770
3.755
3.720
3.965
3.675
3.860
3.545
3.890
4.030
3.530
3.690
3.995
3.890
3.890
3.720
3.715
3.855
3.480
3.285
3.755
3.630
3.530
4.055
3.720
3.880
3.505
3.805
3.880
3.615
3.390
3.570
3.550
3.325
3.580
3.280
3.605
3.780
3.640
3.490
3.435
3.105
3.620
4.045
3.605
3.390
3.530
3.610
3.500
3.325
3.470
3.495
3.115
3.385
3.580
3.295
3.250
3.725
3.400
3.485
3.465
3.250
3.295
3.330
3.220
3.170
3.160
3.190
3.335
2.905
3.265
3.165
3.185
3.555
3.325
3.140
2.965
3.155
2.975
3.025
3.480
3.190
2.965
2.755
3.050
2.810
3.310
3.050
3.120
2.990
3.190
3.220
3.285
2.810
2.880
3.225
2.710
3.190
3.065
2.675
2.745
2.995
2.825
2.775
3.050
3.075
2.710
2.550
2.520
2.465
2.830
2.830
2.570
2.490
2.580
2.375
2.690
2.835
3.030
2.740
2.490
2.550
2.385
2.580
2.355
2.295
2.160
2.250
2.560
2.470
2.490
2.330
2.235
2.235
2.410
2.075
2.275
2.185
2.155
2.210
2.250
2.000
2.385
2.320
2.135
2.470
2.250
2.000
2.210
2.085
2.085
2.310
2.000
2.025
2.075
2.000
2.000
2.085
2.165
2.000
2.000
2.000
2.175
2.085
2.000
2.000
2.085
2.000
2.000
2.000
2.000
2.000
2.085
2.000
2.000
2.000
2.000
1.920
2.085
1.835
2.000
2.000
1.920
2.000
2.000
2.000
2.000
2.000
1.920
2.000
2.000
2.000
2.000
1.825
1.920
1.755
2.000
2.000
1.910
2.000
1.920
1.835
1.915
1.695
1.975
1.910
1.835
2.000
1.860
1.605
1.920
1.910
1.890
2.000
1.695
1.835
1.910
1.915
1.835
1.980
1.910
1.910
1.625
1.805
2.000
2.000
1.745
